Date,Adj Close,Close,High,Low,Open,Volume
2025-01-02,480.7719421386719,481.0,487.95001220703125,476.82501220703125,483.0,47943.0
2025-01-03,483.7705078125,484.0,484.0,480.4800109863281,483.0,65543.0
2025-01-06,485.7695617675781,486.0,489.0,482.0,483.0,162076.0
2025-01-07,481.7714538574219,482.0,488.0,481.90301513671875,486.0,57561.0
2025-01-08,485.7695617675781,486.0,488.0,482.0,482.0,58855.0
2025-01-09,486.76910400390625,487.0,488.2799987792969,479.8999938964844,484.0,70884.0
2025-01-10,485.7695617675781,486.0,488.0,481.0,484.0,132804.0
2025-01-13,479.77239990234375,480.0,486.0,476.0,479.0,129635.0
2025-01-14,480.7719421386719,481.0,488.20001220703125,480.4800109863281,483.0,89282.0
2025-01-15,481.7714538574219,482.0,484.2300109863281,479.9200134277344,483.0,113109.0
2025-01-16,485.7695617675781,486.0,494.0,484.0,490.0,158965.0
2025-01-17,491.7667236328125,492.0,495.0,486.1390075683594,490.0,130706.0
2025-01-20,493.2659912109375,493.5,494.0,490.0,494.0,60660.0
2025-01-21,492.7662658691406,493.0,498.0,487.0,487.0,117907.0
2025-01-22,495.76483154296875,496.0,496.0,486.0,493.0,198610.0
2025-01-23,492.7662658691406,493.0,498.0,491.75299072265625,496.0,194094.0
2025-01-24,494.7652893066406,495.0,498.0,493.0,493.0,130437.0
2025-01-27,480.7719421386719,481.0,498.25,474.0,493.0,71756.0
2025-01-28,483.7705078125,484.0,484.0,477.0,482.0,112984.0
2025-01-29,489.7676696777344,490.0,490.0,479.5,483.0,91963.0
2025-01-30,489.7676696777344,490.0,493.02801513671875,488.4200134277344,490.0,77307.0
2025-01-31,491.7667236328125,492.0,499.2300109863281,487.0,496.0,46557.0
2025-02-03,486.76910400390625,487.0,491.80999755859375,484.95001220703125,488.0,78950.0
2025-02-04,484.77001953125,485.0,491.0,485.0,485.0,70316.0
2025-02-05,484.270263671875,484.5,490.0,478.0,478.0,92733.0
2025-02-06,486.76910400390625,487.0,490.20001220703125,481.4599914550781,487.0,83697.0
2025-02-07,491.7667236328125,492.0,493.0,483.0,490.0,103589.0
2025-02-10,490.7671813964844,491.0,495.0,485.3529968261719,492.0,99742.0
2025-02-11,488.76812744140625,489.0,492.0,484.0,492.0,90242.0
2025-02-12,483.7705078125,484.0,493.1300048828125,481.0,484.0,101351.0
2025-02-13,485.7695617675781,486.0,493.57000732421875,485.0,487.0,375769.0
2025-02-14,483.7705078125,484.0,488.0,484.0,487.0,122574.0
2025-02-17,488.76812744140625,489.0,498.0,486.79998779296875,489.0,85391.0
2025-02-18,488.76812744140625,489.0,500.0,488.0,500.0,114949.0
2025-02-19,493.7657470703125,494.0,499.0,486.0,486.0,76776.0
2025-02-20,494.7652893066406,495.0,499.7330017089844,490.0,494.0,546206.0
2025-02-21,497.7638854980469,498.0,499.20001220703125,494.6400146484375,496.0,152074.0
2025-02-24,491.7667236328125,492.0,500.0,492.0,496.0,121439.0
2025-02-25,489.7676696777344,490.0,500.0,486.1300048828125,500.0,143674.0
2025-02-26,489.7676696777344,490.0,498.0,488.25,490.0,191395.0
2025-02-27,479.77239990234375,480.0,496.0,480.0,488.0,361639.0
2025-02-28,478.7728576660156,479.0,494.0,476.0,477.0,213786.0
2025-03-03,475.7742919921875,476.0,485.0,472.0,480.0,126393.0
2025-03-04,469.77716064453125,470.0,488.0,470.0,474.0,330654.0
2025-03-05,473.7752380371094,474.0,487.0,473.510009765625,474.0,156223.0
2025-03-06,481.7714538574219,482.0,488.0,474.0,476.0,151906.0
2025-03-07,472.7757263183594,473.0,484.239990234375,471.0,471.0,74663.0
2025-03-10,466.778564453125,467.0,489.0,467.0,472.0,288475.0
2025-03-11,465.779052734375,466.0,470.0,465.0,470.0,117768.0
2025-03-12,464.7795104980469,465.0,469.0,463.0,464.0,173635.0
2025-03-13,464.7795104980469,465.0,473.0,460.0,464.0,189074.0
2025-03-14,463.7799987792969,464.0,470.0,459.0,462.0,254991.0
2025-03-17,465.779052734375,466.0,469.1600036621094,462.0,464.0,142829.0
2025-03-18,466.778564453125,467.0,472.0,464.0,466.0,293576.0
2025-03-19,466.778564453125,467.0,473.0,466.0,470.0,438633.0
2025-03-20,466.778564453125,467.0,474.3280029296875,462.0,469.0,70541.0
2025-03-21,463.7799987792969,464.0,474.0,460.0,460.0,187200.0
2025-03-24,470.77667236328125,471.0,474.0,461.0,469.0,199269.0
2025-03-25,470.77667236328125,471.0,472.760009765625,465.6000061035156,467.0,213754.0
2025-03-26,467.778076171875,468.0,480.0,467.0,480.0,137314.0
2025-03-27,470.77667236328125,471.0,473.0,466.0,470.0,123593.0
2025-03-28,464.7795104980469,465.0,469.0,461.0,467.0,157846.0
2025-03-31,452.78521728515625,453.0,462.0,453.0,462.0,262736.0
2025-04-01,457.7828369140625,458.0,460.9200134277344,452.0,455.0,136139.0
2025-04-02,454.7842712402344,455.0,461.0,453.0,454.0,144714.0
2025-04-03,439.7913818359375,440.0,448.0,435.8399963378906,444.0,207642.0
2025-04-04,423.7989501953125,424.0,443.0,415.0,430.0,319010.0
2025-04-07,408.8060607910156,409.0,418.79998779296875,384.0,401.0,234747.0
2025-04-08,414.80322265625,415.0,427.0,406.0,417.0,248425.0
2025-04-09,402.80889892578125,403.0,419.0,394.0,398.0,291193.0
2025-04-10,401.9241027832031,402.0,416.0,402.0,406.0,137525.0
2025-04-11,404.92352294921875,405.0,419.0,402.0,409.0,86384.0
2025-04-14,414.921630859375,415.0,419.8999938964844,406.0,415.0,110312.0
2025-04-15,413.92181396484375,414.0,422.0,400.0,414.0,75507.0
2025-04-16,411.9222106933594,412.0,414.0,400.0,404.0,81212.0
2025-04-17,408.9227600097656,409.0,414.0,400.0,403.0,60208.0
2025-04-22,409.9225769042969,410.0,413.0,403.0,405.0,68610.0
2025-04-23,419.9206848144531,420.0,424.8299865722656,402.17999267578125,414.0,236904.0
2025-04-24,419.9206848144531,420.0,425.0,415.0,420.0,194953.0
2025-04-25,420.9205017089844,421.0,427.0,414.9800109863281,421.0,39492.0
2025-04-28,424.91973876953125,425.0,428.0,419.0,425.0,61539.0
2025-04-29,422.9201354980469,423.0,429.0,418.79998779296875,423.0,161793.0
2025-04-30,427.919189453125,428.0,429.9729919433594,420.0,426.0,134024.0
2025-05-01,436.91748046875,437.0,438.0,423.67999267578125,432.0,127608.0
2025-05-02,444.9159851074219,445.0,450.0,424.35699462890625,438.0,227113.0
2025-05-06,450.9148254394531,451.0,452.0,442.0,446.0,121371.0
2025-05-07,442.9163513183594,443.0,454.0,430.0,445.0,197815.0
2025-05-08,448.91522216796875,449.0,455.0,441.0669860839844,442.0,156191.0
2025-05-09,450.9148254394531,451.0,453.20001220703125,446.0,450.0,87694.0
2025-05-12,466.91180419921875,467.0,472.0,458.0,462.0,246898.0
2025-05-13,465.9120178222656,466.0,473.4700012207031,461.79998779296875,470.0,153748.0
2025-05-14,469.9112548828125,470.0,474.0,456.0799865722656,470.0,90297.0
2025-05-15,471.910888671875,472.0,472.0799865722656,464.9599914550781,469.0,71009.0
2025-05-16,467.91162109375,468.0,471.0,463.0,468.0,78182.0
2025-05-19,463.9123840332031,464.0,475.0,459.0,459.0,256880.0
2025-05-20,463.9123840332031,464.0,477.0,462.3999938964844,469.0,106702.0
2025-05-21,462.9125671386719,463.0,478.0,462.45001220703125,464.0,82392.0
2025-05-22,460.9129638671875,461.0,473.0,457.0,465.0,101219.0
2025-05-23,455.91387939453125,456.0,464.7099914550781,454.6600036621094,459.0,57822.0
2025-05-27,460.9129638671875,461.0,464.25,454.0,455.0,329561.0
2025-05-28,464.9122009277344,465.0,468.8699951171875,460.3999938964844,462.0,168818.0
2025-05-29,460.9129638671875,461.0,469.0,461.0,463.0,105921.0
2025-05-30,459.91314697265625,460.0,464.0,456.0,456.0,113775.0
2025-06-02,460.9129638671875,461.0,464.0,456.9840087890625,462.0,88616.0
2025-06-03,462.9125671386719,463.0,465.0,457.0,464.0,76675.0
2025-06-04,462.9125671386719,463.0,467.0,457.0,465.0,350126.0
2025-06-05,467.91162109375,468.0,469.0,464.0,465.0,72438.0
2025-06-06,463.9123840332031,464.0,470.3800048828125,462.0,470.0,85890.0
2025-06-09,467.91162109375,468.0,474.0,463.0,472.0,97237.0
2025-06-10,464.9122009277344,465.0,476.0,463.0,466.0,246622.0
2025-06-11,468.91143798828125,469.0,471.0,462.0,462.0,395701.0
2025-06-12,464.9122009277344,465.0,476.0,465.0,466.0,154541.0
2025-06-13,458.913330078125,459.0,464.0,456.70001220703125,460.0,64162.0
2025-06-16,459.91314697265625,460.0,469.0,456.0,460.0,103550.0
2025-06-17,457.91351318359375,458.0,467.0,458.0,458.0,93461.0
2025-06-18,461.9127502441406,462.0,467.0,456.79998779296875,461.0,375498.0
2025-06-19,462.9125671386719,463.0,469.0,454.0,463.0,375682.0
2025-06-20,458.913330078125,459.0,463.2770080566406,455.0,458.0,56907.0
2025-06-23,453.9142761230469,454.0,464.0,452.55999755859375,464.0,91770.0
2025-06-24,459.91314697265625,460.0,464.0,456.0,459.0,179140.0
2025-06-25,458.913330078125,459.0,464.0,456.0,461.0,147833.0
2025-06-26,458.913330078125,459.0,464.0,457.0,460.0,104835.0
2025-06-27,463.9123840332031,464.0,465.0,457.8800048828125,461.0,83232.0
2025-06-30,461.9127502441406,462.0,469.0,458.0,464.0,77792.0
2025-07-01,460.9129638671875,461.0,469.0,460.0,462.0,110967.0
2025-07-02,465.9120178222656,466.0,469.0,458.0,469.0,38644.0
2025-07-03,466.91180419921875,467.0,471.4800109863281,461.79998779296875,467.0,180158.0
2025-07-04,462.9125671386719,463.0,474.0,462.6000061035156,470.0,53747.0
2025-07-07,462.9125671386719,463.0,474.0,462.0,463.0,112679.0
2025-07-08,471.910888671875,472.0,474.0,462.0,468.0,453898.0
2025-07-09,474.9103088378906,475.0,475.5799865722656,468.1499938964844,471.0,183833.0
2025-07-10,478.9095458984375,479.0,480.0,472.0,472.0,646417.0
2025-07-11,478.9095458984375,479.0,480.0,475.30999755859375,478.0,31452.0
2025-07-14,480.9091796875,481.0,482.2300109863281,473.0,480.0,194941.0
2025-07-15,484.9084167480469,485.0,488.0,480.5899963378906,484.0,68557.0
2025-07-16,485.9082336425781,486.0,488.0,479.0,486.0,69938.0
2025-07-17,487.9078369140625,488.0,491.0,482.7550048828125,487.0,43716.0
2025-07-18,489.907470703125,490.0,491.0,478.0,490.0,34793.0
2025-07-21,490.90728759765625,491.0,493.0,486.0,490.0,74131.0
2025-07-22,491.9071044921875,492.0,493.0,491.0,493.0,35473.0
2025-07-23,498.90576171875,499.0,500.0,491.0,494.0,118522.0
2025-07-24,495.9063415527344,496.0,502.5950012207031,494.0,502.0,74851.0
2025-07-25,501.90521240234375,502.0,502.0,493.0,495.0,45719.0
2025-07-28,503.90484619140625,504.0,507.55999755859375,501.5,506.0,179304.0
2025-07-29,503.90484619140625,504.0,504.0,500.0,504.0,287017.0
2025-07-30,499.90557861328125,500.0,503.0140075683594,496.0,502.0,59419.0
2025-07-31,499.90557861328125,500.0,510.0,499.0,499.0,78527.0
2025-08-01,492.90692138671875,493.0,502.0,490.0,494.0,114226.0
2025-08-04,497.9059753417969,498.0,506.0,492.0,495.0,60718.0
2025-08-05,494.9065246582031,495.0,500.8280029296875,491.0,497.0,328665.0
2025-08-06,496.9061584472656,497.0,498.89300537109375,494.1960144042969,496.0,158257.0
2025-08-07,498.90576171875,499.0,504.0,497.2900085449219,499.0,333878.0
2025-08-08,493.9067077636719,494.0,500.3479919433594,491.0,491.0,48017.0
2025-08-11,494.9065246582031,495.0,497.7900085449219,494.0,496.0,70332.0
2025-08-12,494.9065246582031,495.0,502.0,493.0,496.0,168557.0
2025-08-13,499.90557861328125,500.0,506.0,499.0,500.0,106948.0
2025-08-14,499.90557861328125,500.0,510.0,496.0,499.0,66314.0
2025-08-15,497.9059753417969,498.0,508.0,497.20001220703125,500.0,51868.0
2025-08-18,501.90521240234375,502.0,508.0,497.0,508.0,104008.0
2025-08-19,496.9061584472656,497.0,510.0,496.0,500.0,66493.0
2025-08-20,495.9063415527344,496.0,501.0,492.5,495.0,89012.0
2025-08-21,494.9065246582031,495.0,499.0,494.0,496.0,216387.0
2025-08-22,497.9059753417969,498.0,500.04998779296875,494.1499938964844,497.0,122959.0
2025-08-26,496.9061584472656,497.0,501.0,493.0,495.0,145424.0
2025-08-27,494.9065246582031,495.0,502.0,488.70001220703125,497.0,101278.0
2025-08-28,503.90484619140625,504.0,504.0,492.0,502.0,454341.0
2025-08-29,505.9044494628906,506.0,507.3999938964844,496.0,502.0,200070.0
2025-09-01,503.90484619140625,504.0,506.0,502.0,502.0,127270.0
2025-09-02,498.90576171875,499.0,506.0,498.0,502.0,49574.0
2025-09-03,498.90576171875,499.0,506.3999938964844,499.0,504.0,282985.0
2025-09-04,497.9059753417969,498.0,502.0,497.968994140625,500.0,433911.0
2025-09-05,498.90576171875,499.0,504.0,499.0,500.0,295599.0
2025-09-08,501.90521240234375,502.0,504.97601318359375,499.1990051269531,500.0,46491.0
2025-09-09,505.9044494628906,506.0,508.0,501.9200134277344,504.0,73328.0
2025-09-10,509.9036865234375,510.0,512.0,502.0,510.0,161622.0
2025-09-11,513.9029541015625,514.0,514.0,506.0,510.0,58225.0
2025-09-12,517.9021606445312,518.0,519.2750244140625,512.0,516.0,79923.0
2025-09-15,515.902587890625,516.0,522.0,516.0,520.0,226634.0
2025-09-16,521.9014282226562,522.0,522.0,518.0,518.0,206681.0
2025-09-17,523.9010620117188,524.0,526.0,522.0,524.0,129131.0
2025-09-18,525.9006958007812,526.0,526.5830078125,522.760009765625,526.0,331322.0
2025-09-19,527.9002685546875,528.0,532.0,524.0,526.0,197972.0
2025-09-22,525.9006958007812,526.0,533.4400024414062,526.0,532.0,135535.0
2025-09-23,533.899169921875,534.0,534.0,524.1599731445312,528.0,142630.0
2025-09-24,529.89990234375,530.0,533.0,528.0,532.0,148086.0
2025-09-25,527.9002685546875,528.0,534.0,525.5020141601562,530.0,40862.0
2025-09-26,523.9010620117188,524.0,530.0,524.0,526.0,80653.0
2025-09-29,531.8995361328125,532.0,532.0,525.1599731445312,526.0,148866.0
2025-09-30,535.8988037109375,536.0,536.0,528.6300048828125,530.0,275833.0
2025-10-01,551.895751953125,552.0,552.0,534.9000244140625,536.0,1732919.0
2025-10-02,545.8969116210938,546.0,552.0,544.0,544.0,93552.0
2025-10-03,549.8961181640625,550.0,556.0,544.0,550.0,180251.0
2025-10-06,555.89501953125,556.0,556.0,546.0,550.0,99962.0
2025-10-07,559.894287109375,560.0,560.7760009765625,546.0,554.0,91996.0
2025-10-08,561.8938598632812,562.0,563.4639892578125,556.0,560.0,92955.0
2025-10-09,557.8946533203125,558.0,566.0,556.0,556.0,429005.0
2025-10-10,545.8969116210938,546.0,560.0,546.0,556.0,570741.0
2025-10-13,549.8961181640625,550.0,552.0,541.260986328125,542.0,270265.0
2025-10-14,535.8988037109375,536.0,546.2000122070312,536.0,544.0,328221.0
2025-10-15,541.8976440429688,542.0,545.5599975585938,537.0999755859375,538.0,278398.0
2025-10-16,537.8984375,538.0,548.0,538.0,548.0,162167.0
2025-10-17,535.8988037109375,536.0,538.0,532.0,534.0,136781.0
2025-10-20,545.8969116210938,546.0,546.0,530.0,530.0,101089.0
2025-10-21,545.8969116210938,546.0,549.0,542.0,548.0,260286.0
2025-10-22,547.8965454101562,548.0,554.0,544.0,550.0,195432.0
2025-10-23,553.8953857421875,554.0,554.0,545.0,548.0,133470.0
2025-10-24,557.8946533203125,558.0,558.0,551.1799926757812,554.0,91790.0
2025-10-27,561.8938598632812,562.0,562.0,556.2999877929688,560.0,114183.0
2025-10-28,565.8931274414062,566.0,566.0,560.25,564.0,141138.0
2025-10-29,575.8912353515625,576.0,576.0,564.7150268554688,568.0,115204.0
2025-10-30,569.8923950195312,570.0,578.0,570.0,570.0,118244.0
2025-10-31,571.8919677734375,572.0,578.0,570.0,576.0,66177.0
2025-11-03,573.8916015625,574.0,582.0,574.0,578.0,103476.0
2025-11-04,571.8919677734375,572.0,574.5159912109375,567.3049926757812,570.0,140821.0
2025-11-05,573.8916015625,574.0,574.0,566.3519897460938,570.0,214647.0
2025-11-06,565.8931274414062,566.0,574.0,566.0,568.0,212455.0
2025-11-07,561.8938598632812,562.0,566.0,560.0,560.0,233669.0
2025-11-10,565.8931274414062,566.0,573.1199951171875,562.0,562.0,155648.0
2025-11-11,573.8916015625,574.0,574.0,566.0,570.0,143476.0
2025-11-12,573.8916015625,574.0,580.0,570.0,576.0,202568.0
2025-11-13,565.8931274414062,566.0,576.0,566.0,574.0,97319.0
2025-11-14,569.8923950195312,570.0,570.0,556.0,566.0,156321.0
2025-11-17,567.8927612304688,568.0,576.0,562.0,576.0,119169.0
2025-11-18,559.894287109375,560.0,560.0,551.843994140625,554.0,262218.0
2025-11-19,559.894287109375,560.0,562.0,552.0,552.0,111908.0
2025-11-20,563.8934936523438,564.0,567.8200073242188,561.5999755859375,562.0,217732.0
2025-11-21,551.895751953125,552.0,566.0,542.4000244140625,554.0,221363.0
2025-11-24,553.8953857421875,554.0,560.0,553.0999755859375,556.0,97239.0
2025-11-25,553.8953857421875,554.0,560.0,550.0,550.0,152872.0
2025-11-26,561.8938598632812,562.0,566.0,557.780029296875,560.0,78158.0
2025-11-27,561.8938598632812,562.0,566.0,560.0,562.0,70918.0
2025-11-28,565.8931274414062,566.0,566.0,560.2000122070312,562.0,107749.0
2025-12-01,561.8938598632812,562.0,566.0,558.64599609375,560.0,318218.0
2025-12-02,557.8946533203125,558.0,570.0,556.25,564.0,388639.0
2025-12-03,555.89501953125,556.0,560.0,555.510009765625,558.0,244971.0
2025-12-04,551.895751953125,552.0,558.0,552.0,552.0,157000.0
2025-12-05,557.8946533203125,558.0,562.0,552.0,554.0,126732.0
2025-12-08,559.894287109375,560.0,562.0,552.0,560.0,99415.0
2025-12-09,559.894287109375,560.0,562.0,554.0,556.0,197673.0
2025-12-10,559.894287109375,560.0,564.0,556.0,558.0,109207.0
2025-12-11,559.894287109375,560.0,568.0,555.5040283203125,558.0,202195.0
2025-12-12,555.89501953125,556.0,568.0,556.0,562.0,119471.0
2025-12-15,557.8946533203125,558.0,562.0,550.5599975585938,556.0,142793.0
2025-12-16,545.8969116210938,546.0,556.0,546.0,550.0,280040.0
2025-12-17,547.8965454101562,548.0,560.0,546.0,554.0,203727.0
2025-12-18,549.8961181640625,550.0,552.5650024414062,545.739990234375,548.0,116023.0
2025-12-19,555.89501953125,556.0,557.4000244140625,547.0,556.0,167318.0
2025-12-22,557.8946533203125,558.0,560.0,552.0,560.0,145705.0
2025-12-23,555.89501953125,556.0,562.0,552.0,562.0,37420.0
2025-12-24,549.8961181640625,550.0,564.0,550.0,564.0,150105.0
2025-12-29,559.894287109375,560.0,564.0,548.0,560.0,82736.0
2025-12-30,561.8938598632812,562.0,564.0,556.9600219726562,560.0,190160.0
2025-12-31,559.894287109375,560.0,566.0,558.5189819335938,562.0,39943.0
2026-01-02,569.8923950195312,570.0,575.4000244140625,559.1199951171875,568.0,265216.0
2026-01-05,575.8912353515625,576.0,580.0,568.3200073242188,574.0,216157.0
2026-01-06,583.8897094726562,584.0,586.0,573.739990234375,578.0,416083.0
2026-01-07,581.8900756835938,582.0,586.0,576.8820190429688,582.0,164994.0
2026-01-08,579.8905029296875,580.0,584.041015625,576.0,580.0,251370.0
2026-01-09,581.8900756835938,582.0,582.0999755859375,579.10400390625,580.0,52640.0
2026-01-12,581.8900756835938,582.0,586.0,576.0,582.0,95141.0
2026-01-13,583.8897094726562,584.0,586.0,578.0,582.0,153921.0
2026-01-14,581.8900756835938,582.0,584.0,578.0,578.0,327476.0
2026-01-15,589.8886108398438,590.0,590.0,579.739990234375,582.0,277568.0
2026-01-16,583.8897094726562,584.0,588.0,580.0,584.0,114683.0
2026-01-19,585.8893432617188,586.0,588.0,578.0,578.0,65296.0
2026-01-20,575.8912353515625,576.0,584.0,576.0,576.0,95733.0
2026-01-21,583.8897094726562,584.0,586.0,576.0,576.0,90379.0
2026-01-22,587.8889770507812,588.0,590.781982421875,582.0,590.0,175026.0
2026-01-23,585.8893432617188,586.0,594.0,584.0,590.0,113696.0
2026-01-26,581.8900756835938,582.0,592.0,581.489013671875,584.0,89084.0
2026-01-27,589.8886108398438,590.0,591.3400268554688,584.0,584.0,119255.0
2026-01-28,591.88818359375,592.0,596.0,588.0,592.0,86323.0
2026-01-29,585.8893432617188,586.0,594.0,583.2130126953125,594.0,195555.0
2026-01-30,585.8893432617188,586.0,590.0,583.2000122070312,590.0,56837.0
2026-02-02,591.88818359375,592.0,592.0,582.0,582.0,98837.0
2026-02-03,591.88818359375,592.0,600.0,592.0,596.0,135405.0
2026-02-04,589.8886108398438,590.0,600.0,586.0,594.0,126085.0
2026-02-05,593.8878173828125,594.0,594.9940185546875,586.0,586.0,189266.0
2026-02-06,593.8878173828125,594.0,598.0,586.0,586.0,70711.0
2026-02-09,593.8878173828125,594.0,602.0,592.0,596.0,108844.0
2026-02-10,601.8863525390625,602.0,608.0,596.0,598.0,81932.0
2026-02-11,605.8855590820312,606.0,611.5999755859375,599.780029296875,606.0,137111.0
2026-02-12,603.8859252929688,604.0,616.0,604.0,610.0,147321.0
2026-02-13,601.8863525390625,602.0,610.0,598.072021484375,600.0,94152.0
2026-02-16,607.8851928710938,608.0,610.0,602.0,602.0,75916.0
2026-02-17,601.8863525390625,602.0,610.0,600.0,600.0,212538.0
2026-02-18,615.8836669921875,616.0,616.0,606.0,606.0,66323.0
2026-02-19,611.8844604492188,612.0,621.4000244140625,612.0,620.0,60600.0
2026-02-20,617.88330078125,618.0,620.0,610.0,614.0,98310.0
2026-02-23,619.8829345703125,620.0,622.0,614.0,616.0,102116.0
2026-02-24,627.8814086914062,628.0,628.0,618.0,622.0,105675.0
2026-02-25,627.8814086914062,628.0,636.5,627.5369873046875,628.0,80285.0
2026-02-26,629.8810424804688,630.0,640.0,629.5,638.0,103552.0
2026-02-27,647.8776245117188,648.0,651.3980102539062,629.93701171875,640.0,295938.0
2026-03-02,655.8760986328125,656.0,658.0,646.0,654.0,663735.0
2026-03-03,619.8829345703125,620.0,648.0,608.0800170898438,628.0,315211.0
2026-03-04,617.88330078125,618.0,628.0,606.0,608.0,337821.0
2026-03-05,605.8855590820312,606.0,632.0,606.0,626.0,191794.0
2026-03-06,597.8870849609375,598.0,622.0,590.0,612.0,147153.0
2026-03-09,583.8897094726562,584.0,594.0,573.4660034179688,594.0,171073.0
2026-03-10,611.8844604492188,612.0,612.0,591.8829956054688,600.0,84626.0
2026-03-11,609.8848266601562,610.0,624.0,608.0,624.0,47447.0
2026-03-12,597.8870849609375,598.0,622.0,592.0,608.0,177170.0
2026-03-13,603.8859252929688,604.0,616.0,590.1950073242188,602.0,75858.0
2026-03-16,603.8859252929688,604.0,614.0,594.0,594.0,113957.0
2026-03-17,611.8844604492188,612.0,630.0,602.260009765625,612.0,247362.0
2026-03-18,605.8855590820312,606.0,620.0,604.5,606.0,442920.0
2026-03-19,595.887451171875,596.0,612.0,588.0,606.0,115500.0
2026-03-20,587.8889770507812,588.0,604.0,584.0,594.0,136990.0
2026-03-23,583.8897094726562,584.0,597.2000122070312,568.0,584.0,273792.0
2026-03-24,575.8912353515625,576.0,596.2869873046875,576.0,586.0,74472.0
2026-03-25,591.88818359375,592.0,592.0,577.7890014648438,580.0,156269.0
2026-03-26,573.8916015625,574.0,590.0,572.0,590.0,161190.0
2026-03-27,565.8931274414062,566.0,586.0,566.0,568.0,123350.0
2026-03-30,561.8938598632812,562.0,573.0369873046875,554.0,554.0,172897.0
2026-03-31,559.894287109375,560.0,574.0,556.0,556.0,141931.0
2026-04-01,583.8897094726562,584.0,596.0,569.7000122070312,576.0,134368.0
2026-04-02,571.8919677734375,572.0,584.0,566.0,566.0,135754.0
2026-04-07,575.8912353515625,576.0,585.0,560.0,560.0,153366.0
2026-04-08,608.885009765625,609.0,618.0,581.0,600.0,236418.0
2026-04-09,589.0,589.0,597.0,581.0,586.0,102910.0
2026-04-10,592.0,592.0,599.9630126953125,585.4509887695312,588.0,137658.0
2026-04-13,586.0,586.0,591.0,582.0,582.0,77365.0
2026-04-14,603.0,603.0,603.0,586.0,587.0,127667.0
2026-04-15,605.0,605.0,610.0,598.0,608.0,129284.0
2026-04-16,610.0,610.0,619.0,606.0499877929688,610.0,416411.0
2026-04-17,629.0,629.0,630.0,604.4500122070312,608.0,199173.0
2026-04-20,608.0,608.0,629.0,605.0,623.0,184181.0
2026-04-21,619.0,619.0,624.0,610.0,610.0,159276.0
2026-04-22,620.0,620.0,623.0,611.7930297851562,616.0,211508.0
2026-04-23,614.0,614.0,620.0,613.2000122070312,620.0,325530.0
2026-04-24,616.0,616.0,619.4099731445312,610.0,619.0,644017.0
2026-04-27,622.0,622.0,625.0,607.0,624.0,153018.0
2026-04-28,621.0,621.0,630.0,613.0,615.0,354560.0
2026-04-29,619.0,619.0,634.0,616.0,622.0,240274.0
2026-04-30,626.0,626.0,628.0,601.0,619.0,126929.0
2026-05-01,623.0,623.0,634.0,614.9600219726562,627.0,122000.0
2026-05-05,636.0,636.0,642.3579711914062,597.0,597.0,154464.0
2026-05-06,666.0,666.0,672.0,641.0,645.0,229481.0
2026-05-07,672.0,672.0,680.0,665.0,680.0,110055.0
2026-05-08,672.0,672.0,674.0,639.0,639.0,250178.0
2026-05-11,669.0,669.0,673.0,644.7999877929688,669.0,169425.0
2026-05-12,668.0,668.0,675.0,664.5009765625,668.0,543189.0
2026-05-13,678.0,678.0,684.0,668.0,672.0,120242.0
2026-05-14,680.0,680.0,685.0,666.0,673.0,84367.0
2026-05-15,673.0,673.0,680.0,665.0,675.0,148996.0
2026-05-18,659.0,659.0,679.0,658.0,670.0,141994.0
2026-05-19,655.0,655.0,660.0,650.4990234375,660.0,140178.0
2026-05-20,667.0,667.0,671.0,649.8900146484375,655.0,123842.0
2026-05-21,671.0,671.0,674.0,663.0,664.0,85436.0
2026-05-22,682.0,682.0,689.9299926757812,663.9000244140625,677.0,78764.0
2026-05-26,701.0,701.0,707.0,679.0,690.0,136875.0
2026-05-27,706.0,706.0,716.9500122070312,703.0700073242188,709.0,122129.0
2026-05-28,711.0,711.0,715.0,695.0,700.0,98772.0
2026-05-29,708.0,708.0,717.0,707.0,715.0,136130.0
2026-06-01,719.0,719.0,723.0,709.8820190429688,717.0,180783.0
2026-06-02,730.0,730.0,730.0,714.719970703125,720.0,434797.0
2026-06-03,716.0,716.0,730.0,706.0,730.0,312700.0
2026-06-04,708.0,708.0,719.0,705.0,706.0,155360.0
2026-06-05,691.0,691.0,710.0,690.0,705.0,66150.0
2026-06-08,679.0,679.0,689.0,675.0,688.0,97548.0
2026-06-09,671.0,671.0,690.0,671.0,675.0,96984.0
2026-06-10,670.0,670.0,679.0,657.0070190429688,670.0,154323.0
2026-06-11,666.0,666.0,679.0,660.9000244140625,667.0,113840.0
2026-06-12,683.0,683.0,687.0,671.0,671.0,111568.0
2026-06-15,703.0,703.0,703.0,688.0,689.0,128802.0
2026-06-16,693.0,693.0,705.0,692.0,703.0,206894.0
2026-06-17,697.0,697.0,708.0,693.4400024414062,708.0,129167.0
2026-06-18,718.0,718.0,719.0,706.0499877929688,710.0,214857.0
2026-06-19,720.0,720.0,720.0,708.0,708.0,178190.0
2026-06-22,732.0,732.0,738.0,709.0,709.0,82609.0
2026-06-23,701.0,701.0,714.0819702148438,695.3389892578125,700.0,272967.0
2026-06-24,702.0,702.0,706.7949829101562,691.0,700.0,91755.0
2026-06-25,710.0,710.0,719.0,702.7999877929688,704.0,130846.0
2026-06-26,695.0,695.0,703.0,685.0,698.0,67934.0
2026-06-29,690.0,690.0,708.0,689.0,708.0,62421.0
2026-06-30,702.0,702.0,710.0,692.3709716796875,703.0,59949.0
2026-07-01,705.0,705.0,710.0,700.0,710.0,69919.0
2026-07-02,693.0,693.0,703.0,684.0,702.0,82504.0
2026-07-03,702.0,702.0,705.0,690.0,690.0,70195.0
2026-07-06,703.0,703.0,710.0,692.0,696.0,67877.0
2026-07-07,685.0,685.0,698.0,682.719970703125,698.0,90879.0
2026-07-08,680.0,680.0,694.0,667.0,694.0,73365.0
2026-07-09,688.0,688.0,699.0,682.0,683.0,102055.0
2026-07-10,691.0,691.0,699.0,681.9000244140625,691.0,89403.0
2026-07-13,674.0,674.0,686.0,670.75,682.0,74799.0
2026-07-14,672.0,672.0,680.0,667.75,674.0,208486.0
2026-07-15,672.0,672.0,682.0,668.6439819335938,679.0,456134.0
2026-07-16,671.0,671.0,680.0,668.0020141601562,674.0,90191.0
2026-07-17,653.0,653.0,669.0,644.0,656.0,80105.0
2026-07-20,662.0,662.0,662.0,646.4000244140625,654.0,206402.0
2026-07-21,675.0,675.0,680.0,658.156982421875,670.0,77445.0
2026-07-22,671.0,671.0,679.0,660.0,670.0,126935.0
2026-07-23,670.0,670.0,680.0,665.0,680.0,476951.0
2026-07-24,660.0,660.0,673.4400024414062,645.0,645.0,176216.0
2026-07-27,669.0,669.0,687.0,661.0,684.0,376886.0
2026-07-28,650.0,650.0,662.0,644.0,648.0,84454.0
2026-07-29,660.0,660.0,660.0,641.0,641.0,419392.0
2026-07-30,667.0,667.0,667.0,648.8400268554688,654.0,963731.0
2026-07-31,690.0,690.0,700.0,680.0,680.0,174211.0
2026-08-03,695.0,695.0,701.0,683.9910278320312,694.0,96619.0
2026-08-04,704.0,704.0,706.0,692.0,706.0,97744.0
2026-08-05,709.0,709.0,714.0,702.9190063476562,713.0,113386.0
2026-08-06,704.0,704.0,709.0,700.0,702.0,118931.0
2026-08-07,697.0,697.0,711.0,697.0,701.0,225275.0
2026-08-10,698.0,698.0,698.0,696.4400024414062,697.0,124266.0
2026-08-11,700.0,700.0,700.0,696.0399780273438,700.0,272682.0
2026-08-12,703.0,703.0,715.0,697.7230224609375,715.0,218507.0
2026-08-13,710.0,710.0,714.0,699.0910034179688,714.0,171360.0
2026-08-14,708.0,708.0,715.0,699.0,705.0,56098.0
2026-08-17,716.0,716.0,716.0,696.0,716.0,145726.0
2026-08-18,693.0,693.0,710.0,690.0,701.0,62708.0
2026-08-19,697.0,697.0,699.2260131835938,685.0,688.0,86514.0
2026-08-20,688.0,688.0,698.0,685.0,697.0,76509.0
2026-08-21,704.0,704.0,704.0,686.052978515625,688.0,119029.0
2026-08-24,695.0,695.0,701.0,686.2139892578125,701.0,102335.0
2026-08-25,700.0,700.0,703.0,686.0,688.0,61377.0
2026-08-26,700.0,700.0,705.0,692.8400268554688,704.0,127883.0
2026-08-27,705.0,705.0,706.0,687.0,687.0,116767.0
2026-08-28,712.0,712.0,712.0,693.60302734375,702.0,144812.0
2026-09-01,699.0,699.0,716.0,699.0,710.0,146499.0
2026-09-02,690.0,690.0,708.0,687.0,708.0,241686.0
2026-09-03,695.0,695.0,699.0,688.47998046875,696.0,174137.0
2026-09-04,706.0,706.0,714.0,698.1439819335938,706.0,154854.0
2026-09-07,712.0,712.0,719.2570190429688,705.3499755859375,713.0,123910.0
