Date,Adj Close,Close,High,Low,Open,Volume
2025-01-08,0.6025000214576721,0.6025000214576721,0.6025000214576721,0.6025000214576721,0.6025000214576721,5000.0
2025-03-19,0.550000011920929,0.550000011920929,0.5799999833106995,0.550000011920929,0.5799999833106995,11808.0
2025-04-04,0.44999998807907104,0.44999998807907104,0.44999998807907104,0.44999998807907104,0.44999998807907104,3557.0
2025-04-09,0.45249998569488525,0.45249998569488525,0.45500001311302185,0.45249998569488525,0.45500001311302185,6319.0
2025-04-10,0.5049999952316284,0.5049999952316284,0.5049999952316284,0.5049999952316284,0.5049999952316284,1000.0
2025-04-11,0.4699999988079071,0.4699999988079071,0.4699999988079071,0.4699999988079071,0.4699999988079071,6000.0
2025-04-15,0.512499988079071,0.512499988079071,0.5249999761581421,0.5099999904632568,0.5099999904632568,21041.0
2025-04-16,0.5199999809265137,0.5199999809265137,0.5199999809265137,0.5199999809265137,0.5199999809265137,4539.0
2025-05-01,0.49000000953674316,0.49000000953674316,0.49000000953674316,0.4699999988079071,0.4699999988079071,10734.0
2025-05-02,0.5,0.5,0.5,0.4650000035762787,0.4650000035762787,7157.0
2025-05-14,0.5049999952316284,0.5049999952316284,0.5049999952316284,0.5,0.5,3723.0
2025-05-22,0.4749999940395355,0.4749999940395355,0.4749999940395355,0.4749999940395355,0.4749999940395355,305.0
2025-05-27,0.4749999940395355,0.4749999940395355,0.4749999940395355,0.4749999940395355,0.4749999940395355,853.0
2025-06-02,0.5,0.5,0.5,0.5,0.5,622.0
2025-06-13,0.4650000035762787,0.4650000035762787,0.4650000035762787,0.4650000035762787,0.4650000035762787,2718.0
2025-06-18,0.4350000023841858,0.4350000023841858,0.4650000035762787,0.4350000023841858,0.4650000035762787,2614.0
2025-06-19,0.4399999976158142,0.4399999976158142,0.4399999976158142,0.4399999976158142,0.4399999976158142,1364.0
2025-06-20,0.4699999988079071,0.4699999988079071,0.4699999988079071,0.45500001311302185,0.45500001311302185,5428.0
2025-06-25,0.6499999761581421,0.6499999761581421,0.6499999761581421,0.6449999809265137,0.6449999809265137,10902.0
2025-06-26,0.699999988079071,0.699999988079071,0.7400000095367432,0.699999988079071,0.7400000095367432,10720.0
2025-06-27,0.6299999952316284,0.6299999952316284,0.6299999952316284,0.6000000238418579,0.6050000190734863,11547.0
2025-06-30,0.6100000143051147,0.6100000143051147,0.6299999952316284,0.6100000143051147,0.6299999952316284,10797.0
2025-07-01,0.6000000238418579,0.6000000238418579,0.6200000047683716,0.6000000238418579,0.6200000047683716,10509.0
2025-07-02,0.5799999833106995,0.5799999833106995,0.6000000238418579,0.5699999928474426,0.6000000238418579,7656.0
2025-07-03,0.5699999928474426,0.5699999928474426,0.5799999833106995,0.5699999928474426,0.5799999833106995,2345.0
2025-07-04,0.574999988079071,0.574999988079071,0.574999988079071,0.5600000023841858,0.574999988079071,10232.0
2025-07-07,0.574999988079071,0.574999988079071,0.574999988079071,0.574999988079071,0.574999988079071,5937.0
2025-07-08,0.5699999928474426,0.5699999928474426,0.5699999928474426,0.5699999928474426,0.5699999928474426,1159.0
2025-07-09,0.5600000023841858,0.5600000023841858,0.574999988079071,0.5600000023841858,0.574999988079071,3465.0
2025-07-11,0.5950000286102295,0.5950000286102295,0.5950000286102295,0.5950000286102295,0.5950000286102295,5048.0
2025-07-14,0.6299999952316284,0.6299999952316284,0.6299999952316284,0.5799999833106995,0.5799999833106995,7008.0
2025-07-15,0.625,0.625,0.625,0.625,0.625,149.0
2025-07-16,0.7549999952316284,0.7549999952316284,0.7799999713897705,0.6949999928474426,0.6949999928474426,6937.0
2025-07-17,0.7799999713897705,0.7799999713897705,0.7850000262260437,0.7400000095367432,0.7850000262260437,9600.0
2025-07-23,0.699999988079071,0.699999988079071,0.7099999785423279,0.699999988079071,0.7099999785423279,8390.0
2025-07-24,0.6850000023841858,0.6850000023841858,0.7099999785423279,0.6850000023841858,0.7099999785423279,5569.0
2025-07-25,0.7200000286102295,0.7200000286102295,0.7200000286102295,0.7200000286102295,0.7200000286102295,1025.0
2025-07-28,0.6949999928474426,0.6949999928474426,0.7450000047683716,0.6800000071525574,0.7400000095367432,12013.0
2025-07-29,0.699999988079071,0.699999988079071,0.699999988079071,0.699999988079071,0.699999988079071,2000.0
2025-07-30,0.6050000190734863,0.6050000190734863,0.6100000143051147,0.6050000190734863,0.6100000143051147,8227.0
2025-07-31,0.6299999952316284,0.6299999952316284,0.6299999952316284,0.6299999952316284,0.6299999952316284,1648.0
2025-08-01,0.550000011920929,0.550000011920929,0.550000011920929,0.550000011920929,0.550000011920929,889.0
2025-08-04,0.5550000071525574,0.5550000071525574,0.5550000071525574,0.5550000071525574,0.5550000071525574,1600.0
2025-08-05,0.6299999952316284,0.6299999952316284,0.6299999952316284,0.6150000095367432,0.6150000095367432,4498.0
2025-08-06,0.6000000238418579,0.6000000238418579,0.6299999952316284,0.6000000238418579,0.6299999952316284,3873.0
2025-08-07,0.6200000047683716,0.6200000047683716,0.6200000047683716,0.6150000095367432,0.6150000095367432,2568.0
2025-08-08,0.6499999761581421,0.6499999761581421,0.6800000071525574,0.625,0.625,7677.0
2025-08-11,0.6499999761581421,0.6499999761581421,0.6800000071525574,0.6499999761581421,0.6800000071525574,11232.0
2025-08-12,0.699999988079071,0.699999988079071,0.7200000286102295,0.699999988079071,0.699999988079071,15429.0
2025-08-13,0.7099999785423279,0.7099999785423279,0.7099999785423279,0.6949999928474426,0.6949999928474426,584.0
2025-08-14,0.7149999737739563,0.7149999737739563,0.7149999737739563,0.7099999785423279,0.7099999785423279,700.0
2025-08-15,0.6800000071525574,0.6800000071525574,0.6800000071525574,0.6800000071525574,0.6800000071525574,3438.0
2025-08-18,0.7149999737739563,0.7149999737739563,0.7250000238418579,0.6899999976158142,0.6899999976158142,7362.0
2025-08-19,0.7200000286102295,0.7200000286102295,0.7200000286102295,0.7149999737739563,0.7149999737739563,2932.0
2025-08-20,0.7149999737739563,0.7149999737739563,0.7149999737739563,0.699999988079071,0.699999988079071,2696.0
2025-09-02,0.46000000834465027,0.46000000834465027,0.46000000834465027,0.46000000834465027,0.46000000834465027,5883.0
2025-09-03,0.4650000035762787,0.4650000035762787,0.4650000035762787,0.4650000035762787,0.4650000035762787,7665.0
2025-09-04,0.46000000834465027,0.46000000834465027,0.46000000834465027,0.46000000834465027,0.46000000834465027,640.0
2025-09-08,0.47999998927116394,0.47999998927116394,0.49000000953674316,0.47999998927116394,0.49000000953674316,3922.0
2025-09-10,0.49000000953674316,0.49000000953674316,0.49000000953674316,0.49000000953674316,0.49000000953674316,11233.0
2025-09-11,0.4300000071525574,0.4300000071525574,0.4300000071525574,0.4050000011920929,0.42500001192092896,45033.0
2025-09-12,0.4050000011920929,0.4050000011920929,0.41499999165534973,0.4050000011920929,0.41499999165534973,1485.0
2025-09-15,0.42500001192092896,0.42500001192092896,0.42500001192092896,0.41499999165534973,0.41499999165534973,12954.0
2025-09-16,0.41999998688697815,0.41999998688697815,0.41999998688697815,0.38999998569488525,0.39500001072883606,9403.0
2025-09-17,0.44999998807907104,0.44999998807907104,0.44999998807907104,0.41499999165534973,0.41499999165534973,22206.0
2025-09-18,0.4399999976158142,0.4399999976158142,0.45500001311302185,0.4399999976158142,0.45500001311302185,15831.0
2025-09-19,0.42500001192092896,0.42500001192092896,0.4399999976158142,0.42500001192092896,0.4399999976158142,9176.0
2025-09-22,0.4449999928474426,0.4449999928474426,0.4449999928474426,0.41999998688697815,0.4300000071525574,9139.0
2025-09-23,0.41499999165534973,0.41499999165534973,0.42500001192092896,0.41499999165534973,0.42500001192092896,16679.0
2025-09-24,0.42500001192092896,0.42500001192092896,0.42500001192092896,0.42500001192092896,0.42500001192092896,346.0
2025-09-25,0.4000000059604645,0.4000000059604645,0.4099999964237213,0.4000000059604645,0.4099999964237213,25678.0
2025-09-26,0.4050000011920929,0.4050000011920929,0.4099999964237213,0.4050000011920929,0.4099999964237213,11020.0
2025-09-29,0.4300000071525574,0.4300000071525574,0.4300000071525574,0.4300000071525574,0.4300000071525574,5094.0
2025-09-30,0.48500001430511475,0.48500001430511475,0.48500001430511475,0.4699999988079071,0.4699999988079071,17044.0
2025-10-02,0.44999998807907104,0.44999998807907104,0.44999998807907104,0.42500001192092896,0.44999998807907104,17637.0
2025-10-03,0.4449999928474426,0.4449999928474426,0.4449999928474426,0.4350000023841858,0.4350000023841858,8194.0
2025-10-06,0.5,0.5,0.5,0.44999998807907104,0.44999998807907104,25494.0
2025-10-07,0.4950000047683716,0.4950000047683716,0.5024999976158142,0.49000000953674316,0.5024999976158142,19669.0
2025-10-08,0.5249999761581421,0.5249999761581421,0.5299999713897705,0.5,0.5199999809265137,11874.0
2025-10-09,0.5299999713897705,0.5299999713897705,0.5299999713897705,0.5299999713897705,0.5299999713897705,3290.0
2025-10-14,0.7549999952316284,0.7549999952316284,0.7549999952316284,0.75,0.75,39912.0
2025-10-15,0.699999988079071,0.699999988079071,0.699999988079071,0.6549999713897705,0.6899999976158142,11735.0
2025-10-16,0.6399999856948853,0.6399999856948853,0.699999988079071,0.6399999856948853,0.6899999976158142,10687.0
2025-10-17,0.6449999809265137,0.6449999809265137,0.6549999713897705,0.6200000047683716,0.6499999761581421,19196.0
2025-10-20,0.699999988079071,0.699999988079071,0.7049999833106995,0.6850000023841858,0.6850000023841858,52788.0
2025-10-22,1.090000033378601,1.090000033378601,1.0950000286102295,0.9750000238418579,0.9800000190734863,29064.0
2025-10-23,1.1100000143051147,1.1100000143051147,1.2999999523162842,0.9950000047683716,1.2200000286102295,98530.0
2025-10-24,0.9399999976158142,0.9399999976158142,0.9900000095367432,0.9350000023841858,0.9399999976158142,108587.0
2025-10-27,0.8450000286102295,0.8450000286102295,0.9700000286102295,0.8450000286102295,0.9350000023841858,53371.0
2025-10-28,0.699999988079071,0.699999988079071,0.7200000286102295,0.6899999976158142,0.6949999928474426,41298.0
2025-10-29,0.7200000286102295,0.7200000286102295,0.7699999809265137,0.7099999785423279,0.7250000238418579,77128.0
2025-10-30,0.75,0.75,0.8600000143051147,0.7350000143051147,0.75,100111.0
2025-10-31,0.8100000023841858,0.8100000023841858,0.8299999833106995,0.8100000023841858,0.824999988079071,15848.0
2025-11-03,0.7649999856948853,0.7649999856948853,0.7850000262260437,0.75,0.7749999761581421,27504.0
2025-11-04,0.7900000214576721,0.7900000214576721,0.824999988079071,0.7749999761581421,0.824999988079071,23006.0
2025-11-05,0.824999988079071,0.824999988079071,0.824999988079071,0.7749999761581421,0.7749999761581421,11219.0
2025-11-06,0.8199999928474426,0.8199999928474426,0.8349999785423279,0.800000011920929,0.8349999785423279,21336.0
2025-11-07,0.7950000166893005,0.7950000166893005,0.8500000238418579,0.7950000166893005,0.8500000238418579,9723.0
2025-11-10,0.7149999737739563,0.7149999737739563,0.8050000071525574,0.7049999833106995,0.8050000071525574,28761.0
2025-11-11,0.7099999785423279,0.7099999785423279,0.7300000190734863,0.7049999833106995,0.7300000190734863,21250.0
2025-11-12,0.7450000047683716,0.7450000047683716,0.75,0.7300000190734863,0.7300000190734863,18692.0
2025-11-13,0.7350000143051147,0.7350000143051147,0.75,0.7300000190734863,0.75,3227.0
2025-11-14,0.7049999833106995,0.7049999833106995,0.7200000286102295,0.6949999928474426,0.7099999785423279,17354.0
2025-11-17,0.8424999713897705,0.8424999713897705,0.8550000190734863,0.7599999904632568,0.7599999904632568,92674.0
2025-11-18,0.7850000262260437,0.7850000262260437,0.800000011920929,0.7799999713897705,0.7799999713897705,18064.0
2025-11-19,0.8700000047683716,0.8700000047683716,0.8899999856948853,0.824999988079071,0.824999988079071,41777.0
2025-11-20,0.8050000071525574,0.8050000071525574,0.8799999952316284,0.800000011920929,0.8799999952316284,62378.0
2025-11-21,0.7850000262260437,0.7850000262260437,0.8100000023841858,0.7699999809265137,0.7950000166893005,29408.0
2025-11-24,0.7900000214576721,0.7900000214576721,0.800000011920929,0.7799999713897705,0.7799999713897705,25754.0
2025-11-25,0.8149999976158142,0.8149999976158142,0.8149999976158142,0.8100000023841858,0.8100000023841858,5951.0
2025-11-26,0.7950000166893005,0.7950000166893005,0.8199999928474426,0.7850000262260437,0.8050000071525574,17247.0
2025-11-27,0.7950000166893005,0.7950000166893005,0.7950000166893005,0.7900000214576721,0.7950000166893005,4187.0
2025-11-28,0.8199999928474426,0.8199999928474426,0.8550000190734863,0.8050000071525574,0.8100000023841858,32324.0
2025-12-01,0.7749999761581421,0.7749999761581421,0.8199999928474426,0.7699999809265137,0.8199999928474426,25170.0
2025-12-02,0.7850000262260437,0.7850000262260437,0.7950000166893005,0.7699999809265137,0.7850000262260437,29979.0
2025-12-03,0.7649999856948853,0.7649999856948853,0.7749999761581421,0.7599999904632568,0.7699999809265137,10832.0
2025-12-04,0.7450000047683716,0.7450000047683716,0.7749999761581421,0.7450000047683716,0.7649999856948853,3997.0
2025-12-05,0.75,0.75,0.75,0.7400000095367432,0.7450000047683716,2556.0
2025-12-08,0.7300000190734863,0.7300000190734863,0.7300000190734863,0.7099999785423279,0.7300000190734863,12969.0
2025-12-09,0.7049999833106995,0.7049999833106995,0.7200000286102295,0.7049999833106995,0.7200000286102295,4856.0
2025-12-11,0.7300000190734863,0.7300000190734863,0.7450000047683716,0.7200000286102295,0.7400000095367432,0.0
2025-12-12,0.7200000286102295,0.7200000286102295,0.7300000190734863,0.7149999737739563,0.7149999737739563,2378.0
2025-12-15,0.7099999785423279,0.7099999785423279,0.7200000286102295,0.7049999833106995,0.7200000286102295,24966.0
2025-12-16,0.7099999785423279,0.7099999785423279,0.7099999785423279,0.699999988079071,0.7049999833106995,9313.0
2025-12-17,0.7049999833106995,0.7049999833106995,0.7149999737739563,0.7049999833106995,0.7049999833106995,5742.0
2025-12-18,0.7049999833106995,0.7049999833106995,0.7049999833106995,0.699999988079071,0.699999988079071,2793.0
2025-12-19,0.6549999713897705,0.6549999713897705,0.6899999976158142,0.6549999713897705,0.6899999976158142,20740.0
2025-12-22,0.675000011920929,0.675000011920929,0.675000011920929,0.675000011920929,0.675000011920929,3013.0
2025-12-23,0.6700000166893005,0.6700000166893005,0.6700000166893005,0.6600000262260437,0.6600000262260437,5622.0
2025-12-24,0.6650000214576721,0.6650000214576721,0.6650000214576721,0.6499999761581421,0.6499999761581421,9148.0
2025-12-29,0.675000011920929,0.675000011920929,0.675000011920929,0.675000011920929,0.675000011920929,4344.0
2025-12-30,0.6800000071525574,0.6800000071525574,0.6800000071525574,0.6800000071525574,0.6800000071525574,3963.0
2025-12-31,0.699999988079071,0.699999988079071,0.699999988079071,0.699999988079071,0.699999988079071,1458.0
2026-01-02,0.6949999928474426,0.6949999928474426,0.699999988079071,0.6899999976158142,0.6899999976158142,8813.0
2026-01-05,0.6899999976158142,0.6899999976158142,0.7149999737739563,0.6899999976158142,0.7149999737739563,14021.0
2026-01-06,0.7099999785423279,0.7099999785423279,0.7149999737739563,0.699999988079071,0.699999988079071,12459.0
2026-01-07,0.7450000047683716,0.7450000047683716,0.7450000047683716,0.7250000238418579,0.7250000238418579,10644.0
2026-01-08,0.7400000095367432,0.7400000095367432,0.7400000095367432,0.7300000190734863,0.7350000143051147,12194.0
2026-01-09,0.7300000190734863,0.7300000190734863,0.7300000190734863,0.7250000238418579,0.7250000238418579,8709.0
2026-01-12,0.7350000143051147,0.7350000143051147,0.7350000143051147,0.6949999928474426,0.7350000143051147,24818.0
2026-01-13,0.7200000286102295,0.7200000286102295,0.7400000095367432,0.7099999785423279,0.7149999737739563,25013.0
2026-01-14,0.7149999737739563,0.7149999737739563,0.7200000286102295,0.699999988079071,0.699999988079071,10706.0
2026-01-15,0.824999988079071,0.824999988079071,0.8399999737739563,0.7799999713897705,0.7799999713897705,13343.0
2026-01-16,0.7950000166893005,0.7950000166893005,0.824999988079071,0.7850000262260437,0.824999988079071,26662.0
2026-01-19,0.8500000238418579,0.8500000238418579,0.8500000238418579,0.8149999976158142,0.8149999976158142,10781.0
2026-01-20,0.7799999713897705,0.7799999713897705,0.8199999928474426,0.7799999713897705,0.8199999928474426,13720.0
2026-01-21,0.7950000166893005,0.7950000166893005,0.8149999976158142,0.7850000262260437,0.8149999976158142,16230.0
2026-01-22,0.7799999713897705,0.7799999713897705,0.7950000166893005,0.7749999761581421,0.7950000166893005,11319.0
2026-01-23,0.7950000166893005,0.7950000166893005,0.8100000023841858,0.7799999713897705,0.7799999713897705,11993.0
2026-01-27,0.75,0.75,0.800000011920929,0.75,0.800000011920929,19740.0
2026-01-28,0.7450000047683716,0.7450000047683716,0.7749999761581421,0.7450000047683716,0.7749999761581421,7803.0
2026-01-29,0.7099999785423279,0.7099999785423279,0.7300000190734863,0.699999988079071,0.7300000190734863,19517.0
2026-01-30,0.6800000071525574,0.6800000071525574,0.6850000023841858,0.6449999809265137,0.6600000262260437,45427.0
2026-02-02,0.6549999713897705,0.6549999713897705,0.6700000166893005,0.6499999761581421,0.6700000166893005,10840.0
2026-02-03,0.6899999976158142,0.6899999976158142,0.6899999976158142,0.6650000214576721,0.6850000023841858,14513.0
2026-02-05,0.699999988079071,0.699999988079071,0.7250000238418579,0.6949999928474426,0.7250000238418579,13146.0
2026-02-06,0.6800000071525574,0.6800000071525574,0.6800000071525574,0.6499999761581421,0.6499999761581421,4928.0
2026-02-09,0.6449999809265137,0.6449999809265137,0.6549999713897705,0.625,0.6549999713897705,15437.0
2026-02-10,0.6499999761581421,0.6499999761581421,0.6700000166893005,0.6499999761581421,0.6650000214576721,9716.0
2026-02-11,0.6700000166893005,0.6700000166893005,0.6700000166893005,0.6600000262260437,0.6600000262260437,3016.0
2026-02-12,0.6949999928474426,0.6949999928474426,0.6949999928474426,0.6650000214576721,0.6650000214576721,7548.0
2026-02-13,0.6800000071525574,0.6800000071525574,0.6800000071525574,0.6800000071525574,0.6800000071525574,1992.0
2026-02-16,0.6499999761581421,0.6499999761581421,0.6700000166893005,0.6499999761581421,0.6650000214576721,7093.0
2026-02-17,0.6899999976158142,0.6899999976158142,0.6899999976158142,0.675000011920929,0.675000011920929,4759.0
2026-02-18,0.6299999952316284,0.6299999952316284,0.6650000214576721,0.6000000238418579,0.6650000214576721,17041.0
2026-02-19,0.6449999809265137,0.6449999809265137,0.6650000214576721,0.6449999809265137,0.6650000214576721,12353.0
2026-02-20,0.6650000214576721,0.6650000214576721,0.6650000214576721,0.6399999856948853,0.6399999856948853,5688.0
2026-02-23,0.675000011920929,0.675000011920929,0.6800000071525574,0.6600000262260437,0.6800000071525574,5111.0
2026-02-24,0.6399999856948853,0.6399999856948853,0.6549999713897705,0.6399999856948853,0.6549999713897705,19995.0
2026-02-25,0.6449999809265137,0.6449999809265137,0.6449999809265137,0.6449999809265137,0.6449999809265137,1914.0
2026-02-26,0.6200000047683716,0.6200000047683716,0.6349999904632568,0.6000000238418579,0.6349999904632568,11725.0
2026-02-27,0.6349999904632568,0.6349999904632568,0.6449999809265137,0.6349999904632568,0.6399999856948853,5500.0
2026-03-02,0.6600000262260437,0.6600000262260437,0.6600000262260437,0.6600000262260437,0.6600000262260437,4065.0
2026-03-03,0.6700000166893005,0.6700000166893005,0.6800000071525574,0.6600000262260437,0.6650000214576721,12328.0
2026-03-04,0.6800000071525574,0.6800000071525574,0.6800000071525574,0.6650000214576721,0.6650000214576721,5940.0
2026-03-05,0.6800000071525574,0.6800000071525574,0.6800000071525574,0.6700000166893005,0.675000011920929,6572.0
2026-03-06,0.6949999928474426,0.6949999928474426,0.6949999928474426,0.6700000166893005,0.6700000166893005,5907.0
2026-03-09,0.6299999952316284,0.6299999952316284,0.6700000166893005,0.6299999952316284,0.6700000166893005,8394.0
2026-03-11,0.6549999713897705,0.6549999713897705,0.6549999713897705,0.6499999761581421,0.6499999761581421,5647.0
2026-03-12,0.6499999761581421,0.6499999761581421,0.6650000214576721,0.6499999761581421,0.6650000214576721,5962.0
2026-03-13,0.6800000071525574,0.6800000071525574,0.7149999737739563,0.6600000262260437,0.675000011920929,7751.0
2026-03-16,0.7049999833106995,0.7049999833106995,0.7300000190734863,0.7049999833106995,0.7300000190734863,7252.0
2026-03-17,0.6949999928474426,0.6949999928474426,0.6949999928474426,0.6899999976158142,0.6899999976158142,4367.0
2026-03-18,0.6899999976158142,0.6899999976158142,0.6899999976158142,0.6899999976158142,0.6899999976158142,2255.0
2026-03-19,0.6549999713897705,0.6549999713897705,0.6549999713897705,0.6549999713897705,0.6549999713897705,7149.0
2026-03-20,0.6949999928474426,0.6949999928474426,0.6949999928474426,0.6600000262260437,0.6700000166893005,6510.0
2026-03-23,0.6650000214576721,0.6650000214576721,0.6650000214576721,0.6200000047683716,0.6600000262260437,21557.0
2026-03-24,0.6299999952316284,0.6299999952316284,0.6499999761581421,0.6299999952316284,0.6349999904632568,13007.0
2026-03-25,0.6299999952316284,0.6299999952316284,0.6600000262260437,0.6299999952316284,0.6600000262260437,10179.0
2026-03-26,0.6499999761581421,0.6499999761581421,0.6499999761581421,0.6399999856948853,0.6399999856948853,6823.0
2026-03-27,0.6200000047683716,0.6200000047683716,0.6399999856948853,0.6200000047683716,0.6299999952316284,8516.0
2026-03-30,0.6200000047683716,0.6200000047683716,0.6200000047683716,0.6200000047683716,0.6200000047683716,2171.0
2026-03-31,0.6200000047683716,0.6200000047683716,0.625,0.6200000047683716,0.6200000047683716,11718.0
2026-04-01,0.6499999761581421,0.6499999761581421,0.6549999713897705,0.6399999856948853,0.6399999856948853,14371.0
2026-04-02,0.625,0.625,0.625,0.625,0.625,1736.0
2026-04-07,0.6200000047683716,0.6200000047683716,0.6299999952316284,0.6200000047683716,0.6299999952316284,6032.0
2026-04-08,0.6299999952316284,0.6299999952316284,0.6449999809265137,0.625,0.6349999904632568,23393.0
2026-04-09,0.6200000047683716,0.6200000047683716,0.6499999761581421,0.6200000047683716,0.6499999761581421,10610.0
2026-04-10,0.6100000143051147,0.6100000143051147,0.6200000047683716,0.6100000143051147,0.6200000047683716,20753.0
2026-04-13,0.6399999856948853,0.6399999856948853,0.6399999856948853,0.6299999952316284,0.6349999904632568,3109.0
2026-04-14,0.6349999904632568,0.6349999904632568,0.6499999761581421,0.6349999904632568,0.6349999904632568,10773.0
2026-04-15,0.6399999856948853,0.6399999856948853,0.6399999856948853,0.625,0.6349999904632568,6294.0
2026-04-16,0.6349999904632568,0.6349999904632568,0.6349999904632568,0.6299999952316284,0.6299999952316284,406.0
2026-04-17,0.6200000047683716,0.6200000047683716,0.6200000047683716,0.6200000047683716,0.6200000047683716,2908.0
2026-04-20,0.6349999904632568,0.6349999904632568,0.6349999904632568,0.6349999904632568,0.6349999904632568,4740.0
2026-04-21,0.6349999904632568,0.6349999904632568,0.6399999856948853,0.6349999904632568,0.6399999856948853,2468.0
2026-04-22,0.6200000047683716,0.6200000047683716,0.6399999856948853,0.6200000047683716,0.6399999856948853,12990.0
2026-04-23,0.6050000190734863,0.6050000190734863,0.6200000047683716,0.6025000214576721,0.6150000095367432,12932.0
2026-04-24,0.6200000047683716,0.6200000047683716,0.6200000047683716,0.6200000047683716,0.6200000047683716,313.0
2026-04-27,0.5799999833106995,0.5799999833106995,0.6050000190734863,0.574999988079071,0.6050000190734863,3842.0
2026-04-28,0.5899999737739563,0.5899999737739563,0.6000000238418579,0.5899999737739563,0.5950000286102295,4005.0
2026-04-29,0.5849999785423279,0.5849999785423279,0.5849999785423279,0.5849999785423279,0.5849999785423279,2301.0
2026-04-30,0.5799999833106995,0.5799999833106995,0.6050000190734863,0.5799999833106995,0.6050000190734863,7904.0
2026-05-01,0.5600000023841858,0.5600000023841858,0.574999988079071,0.5600000023841858,0.5600000023841858,0.0
2026-05-04,0.5600000023841858,0.5600000023841858,0.5649999976158142,0.5600000023841858,0.5649999976158142,1352.0
2026-05-05,0.5600000023841858,0.5600000023841858,0.6000000238418579,0.5049999952316284,0.5649999976158142,38984.0
2026-05-06,0.5699999928474426,0.5699999928474426,0.574999988079071,0.5400000214576721,0.574999988079071,10345.0
2026-05-07,0.5249999761581421,0.5249999761581421,0.5600000023841858,0.5099999904632568,0.5600000023841858,24133.0
2026-05-08,0.5450000166893005,0.5450000166893005,0.5450000166893005,0.5049999952316284,0.5299999713897705,42447.0
2026-05-11,0.5299999713897705,0.5299999713897705,0.5299999713897705,0.5099999904632568,0.5149999856948853,13398.0
2026-05-12,0.49000000953674316,0.49000000953674316,0.5099999904632568,0.4749999940395355,0.5099999904632568,15807.0
2026-05-13,0.5149999856948853,0.5149999856948853,0.5149999856948853,0.4650000035762787,0.47999998927116394,57822.0
2026-05-15,0.5199999809265137,0.5199999809265137,0.5199999809265137,0.5199999809265137,0.5199999809265137,4500.0
2026-05-18,0.5350000262260437,0.5350000262260437,0.5350000262260437,0.5149999856948853,0.5249999761581421,13505.0
2026-05-19,0.5899999737739563,0.5899999737739563,0.6150000095367432,0.5699999928474426,0.5699999928474426,29936.0
2026-05-20,0.5899999737739563,0.5899999737739563,0.6000000238418579,0.574999988079071,0.5950000286102295,13631.0
2026-05-21,0.6000000238418579,0.6000000238418579,0.6100000143051147,0.550000011920929,0.5699999928474426,8683.0
2026-05-22,0.6100000143051147,0.6100000143051147,0.6100000143051147,0.6050000190734863,0.6050000190734863,7110.0
2026-05-25,0.5699999928474426,0.5699999928474426,0.574999988079071,0.5699999928474426,0.574999988079071,725.0
2026-05-26,0.5600000023841858,0.5600000023841858,0.5799999833106995,0.5249999761581421,0.5249999761581421,25275.0
2026-05-27,0.5550000071525574,0.5550000071525574,0.5550000071525574,0.5249999761581421,0.5249999761581421,13671.0
2026-05-28,0.5450000166893005,0.5450000166893005,0.550000011920929,0.5450000166893005,0.550000011920929,322.0
2026-05-29,0.5600000023841858,0.5600000023841858,0.5600000023841858,0.5550000071525574,0.5550000071525574,6860.0
2026-06-01,0.550000011920929,0.550000011920929,0.574999988079071,0.550000011920929,0.574999988079071,13834.0
2026-06-02,0.5450000166893005,0.5450000166893005,0.5450000166893005,0.5450000166893005,0.5450000166893005,1456.0
2026-06-03,0.5450000166893005,0.5450000166893005,0.5450000166893005,0.5450000166893005,0.5450000166893005,64.0
2026-06-05,0.550000011920929,0.550000011920929,0.550000011920929,0.550000011920929,0.550000011920929,566.0
2026-06-10,0.5350000262260437,0.5350000262260437,0.5400000214576721,0.5350000262260437,0.5400000214576721,7488.0
2026-06-11,0.5400000214576721,0.5400000214576721,0.5400000214576721,0.5299999713897705,0.5299999713897705,5238.0
2026-06-12,0.5550000071525574,0.5550000071525574,0.5550000071525574,0.5450000166893005,0.5550000071525574,3351.0
2026-06-15,0.5899999737739563,0.5899999737739563,0.5899999737739563,0.5799999833106995,0.5799999833106995,5479.0
2026-06-16,0.5600000023841858,0.5600000023841858,0.5799999833106995,0.5550000071525574,0.5799999833106995,7863.0
2026-06-17,0.550000011920929,0.550000011920929,0.5649999976158142,0.5450000166893005,0.5649999976158142,41200.0
2026-06-18,0.5400000214576721,0.5400000214576721,0.5400000214576721,0.5400000214576721,0.5400000214576721,3738.0
2026-06-19,0.5600000023841858,0.5600000023841858,0.5600000023841858,0.5450000166893005,0.5450000166893005,9031.0
2026-06-22,0.5550000071525574,0.5550000071525574,0.5550000071525574,0.5400000214576721,0.5400000214576721,9506.0
2026-06-23,0.5550000071525574,0.5550000071525574,0.5550000071525574,0.5550000071525574,0.5550000071525574,2456.0
2026-06-24,0.5799999833106995,0.5799999833106995,0.5799999833106995,0.5600000023841858,0.5649999976158142,7942.0
2026-06-25,0.6150000095367432,0.6150000095367432,0.6150000095367432,0.6000000238418579,0.6050000190734863,16215.0
2026-06-26,0.5899999737739563,0.5899999737739563,0.6050000190734863,0.5649999976158142,0.5899999737739563,21205.0
2026-06-29,0.5699999928474426,0.5699999928474426,0.574999988079071,0.5699999928474426,0.574999988079071,5210.0
2026-06-30,0.5600000023841858,0.5600000023841858,0.5600000023841858,0.550000011920929,0.550000011920929,19303.0
2026-07-01,0.5400000214576721,0.5400000214576721,0.5550000071525574,0.5400000214576721,0.5550000071525574,17051.0
2026-07-02,0.550000011920929,0.550000011920929,0.550000011920929,0.550000011920929,0.550000011920929,1098.0
2026-07-03,0.574999988079071,0.574999988079071,0.5899999737739563,0.574999988079071,0.5899999737739563,6600.0
2026-07-06,0.6000000238418579,0.6000000238418579,0.6349999904632568,0.6000000238418579,0.6050000190734863,11291.0
2026-07-08,0.6150000095367432,0.6150000095367432,0.6349999904632568,0.6150000095367432,0.6349999904632568,4418.0
2026-07-09,0.6100000143051147,0.6100000143051147,0.6299999952316284,0.6100000143051147,0.6299999952316284,9052.0
2026-07-10,0.625,0.625,0.6399999856948853,0.6100000143051147,0.6150000095367432,7530.0
2026-07-14,0.6000000238418579,0.6000000238418579,0.6349999904632568,0.6000000238418579,0.6299999952316284,7395.0
2026-07-16,0.6200000047683716,0.6200000047683716,0.6299999952316284,0.6200000047683716,0.6299999952316284,851.0
2026-07-20,0.5849999785423279,0.5849999785423279,0.6000000238418579,0.5849999785423279,0.5899999737739563,12494.0
2026-07-22,0.5849999785423279,0.5849999785423279,0.5849999785423279,0.5849999785423279,0.5849999785423279,885.0
2026-07-23,0.5899999737739563,0.5899999737739563,0.6000000238418579,0.5899999737739563,0.6000000238418579,5128.0
2026-07-24,0.5600000023841858,0.5600000023841858,0.5600000023841858,0.5600000023841858,0.5600000023841858,348.0
2026-07-27,0.5699999928474426,0.5699999928474426,0.5699999928474426,0.5699999928474426,0.5699999928474426,12.0
2026-07-28,0.5550000071525574,0.5550000071525574,0.5550000071525574,0.5550000071525574,0.5550000071525574,3299.0
2026-07-29,0.5550000071525574,0.5550000071525574,0.5550000071525574,0.5550000071525574,0.5550000071525574,31000.0
2026-07-31,0.550000011920929,0.550000011920929,0.5600000023841858,0.5450000166893005,0.5600000023841858,13797.0
2026-08-03,0.5699999928474426,0.5699999928474426,0.5699999928474426,0.5699999928474426,0.5699999928474426,9711.0
2026-08-04,0.5350000262260437,0.5350000262260437,0.5550000071525574,0.5350000262260437,0.550000011920929,5953.0
2026-08-05,0.5299999713897705,0.5299999713897705,0.550000011920929,0.5249999761581421,0.5249999761581421,11242.0
2026-08-06,0.5149999856948853,0.5149999856948853,0.5299999713897705,0.5149999856948853,0.5299999713897705,18092.0
2026-08-07,0.49000000953674316,0.49000000953674316,0.5199999809265137,0.48500001430511475,0.5199999809265137,26493.0
2026-08-10,0.4749999940395355,0.4749999940395355,0.4950000047683716,0.4699999988079071,0.4950000047683716,10445.0
2026-08-11,0.4399999976158142,0.4399999976158142,0.49000000953674316,0.41499999165534973,0.49000000953674316,9603.0
2026-08-12,0.49000000953674316,0.49000000953674316,0.49000000953674316,0.45500001311302185,0.4675000011920929,29720.0
2026-08-13,0.46000000834465027,0.46000000834465027,0.4749999940395355,0.46000000834465027,0.4650000035762787,13955.0
2026-08-14,0.48500001430511475,0.48500001430511475,0.48500001430511475,0.4749999940395355,0.4749999940395355,9693.0
2026-08-17,0.49000000953674316,0.49000000953674316,0.49000000953674316,0.47999998927116394,0.47999998927116394,13208.0
2026-08-18,0.5049999952316284,0.5049999952316284,0.5049999952316284,0.5049999952316284,0.5049999952316284,3648.0
2026-08-19,0.5049999952316284,0.5049999952316284,0.5099999904632568,0.5049999952316284,0.5099999904632568,4921.0
2026-08-20,0.5199999809265137,0.5199999809265137,0.5199999809265137,0.5199999809265137,0.5199999809265137,1925.0
2026-08-24,0.5099999904632568,0.5099999904632568,0.5299999713897705,0.5099999904632568,0.5299999713897705,3262.0
2026-08-25,0.5049999952316284,0.5049999952316284,0.5049999952316284,0.49000000953674316,0.4950000047683716,11767.0
2026-08-26,0.5400000214576721,0.5400000214576721,0.5899999737739563,0.5249999761581421,0.5899999737739563,11564.0
2026-08-27,0.550000011920929,0.550000011920929,0.5600000023841858,0.5450000166893005,0.5450000166893005,5345.0
2026-08-28,0.5299999713897705,0.5299999713897705,0.5350000262260437,0.5299999713897705,0.5350000262260437,7012.0
2026-08-31,0.5,0.5,0.550000011920929,0.5,0.5450000166893005,23184.0
2026-09-01,0.5400000214576721,0.5400000214576721,0.5400000214576721,0.5350000262260437,0.5350000262260437,10000.0
2026-09-02,0.5450000166893005,0.5450000166893005,0.5450000166893005,0.5350000262260437,0.5350000262260437,12929.0
2026-09-07,0.550000011920929,0.550000011920929,0.550000011920929,0.5400000214576721,0.5400000214576721,7379.0
