Date,Adj Close,Close,High,Low,Open,Volume
2025-01-02,150.55270385742188,154.16000366210938,158.11000061035156,153.4499969482422,157.64999389648438,239400.0
2025-01-03,151.8613739013672,155.5,155.72000122070312,152.8699951171875,154.0399932861328,250700.0
2025-01-06,149.34170532226562,152.9199981689453,154.63999938964844,151.44000244140625,154.0,369000.0
2025-01-07,149.83978271484375,153.42999267578125,156.05999755859375,152.60000610351562,155.9199981689453,361200.0
2025-01-08,150.54295349121094,154.14999389648438,154.25999450683594,152.08999633789062,152.88999938964844,228600.0
2025-01-10,149.85935974121094,153.4499969482422,154.3000030517578,152.5800018310547,152.72000122070312,350800.0
2025-01-13,150.2890167236328,153.88999938964844,154.6999969482422,152.92999267578125,152.92999267578125,349300.0
2025-01-14,150.9921875,154.61000061035156,155.4499969482422,153.47999572753906,154.80999755859375,196900.0
2025-01-15,151.91995239257812,155.55999755859375,156.9199981689453,154.1699981689453,156.1199951171875,206100.0
2025-01-16,152.7500762939453,156.41000366210938,157.1699981689453,155.30999755859375,155.88999938964844,346300.0
2025-01-17,152.4375457763672,156.08999633789062,157.9499969482422,155.67999267578125,156.97000122070312,231900.0
2025-01-21,156.09005737304688,159.8300018310547,160.25999450683594,156.72000122070312,156.72000122070312,270900.0
2025-01-22,155.3478240966797,159.07000732421875,160.75,158.33999633789062,159.33999633789062,280000.0
2025-01-23,155.88494873046875,159.6199951171875,159.80999755859375,157.72999572753906,158.4600067138672,149800.0
2025-01-24,154.59585571289062,158.3000030517578,160.47000122070312,157.22000122070312,159.64999389648438,329600.0
2025-01-27,154.75209045410156,158.4600067138672,158.9199981689453,156.64999389648438,158.25,317000.0
2025-01-28,154.71302795410156,158.4199981689453,160.35000610351562,157.57000732421875,157.57000732421875,204300.0
2025-01-29,153.43370056152344,157.11000061035156,158.82000732421875,156.6199951171875,158.77999877929688,265800.0
2025-01-30,154.42982482910156,158.1300048828125,158.67999267578125,156.5800018310547,157.82000732421875,274200.0
2025-01-31,153.47276306152344,157.14999389648438,159.38999938964844,156.75999450683594,157.89999389648438,834100.0
2025-02-03,152.3301239013672,155.97999572753906,156.75,154.13999938964844,154.5800018310547,364600.0
2025-02-04,154.00987243652344,157.6999969482422,158.4600067138672,156.08999633789062,156.08999633789062,302400.0
2025-02-05,155.05784606933594,158.32000732421875,159.66000366210938,157.77999877929688,158.27999877929688,262600.0
2025-02-06,153.22634887695312,156.4499969482422,159.83999633789062,155.3699951171875,159.83999633789062,446600.0
2025-02-07,140.2297821044922,143.17999267578125,157.89999389648438,142.0399932861328,157.6199951171875,1221500.0
2025-02-10,140.32774353027344,143.27999877929688,144.60000610351562,140.89999389648438,144.25999450683594,621900.0
2025-02-11,139.35812377929688,142.2899932861328,143.07000732421875,140.25999450683594,142.27000427246094,377300.0
2025-02-12,138.7802734375,141.6999969482422,143.49000549316406,139.92999267578125,140.97000122070312,423500.0
2025-02-13,139.8282470703125,142.77000427246094,143.77999877929688,141.4600067138672,142.75,665900.0
2025-02-14,141.806640625,144.7899932861328,145.30999755859375,142.72000122070312,143.69000244140625,512800.0
2025-02-18,143.87313842773438,146.89999389648438,147.2899932861328,143.89999389648438,144.7899932861328,489600.0
2025-02-19,144.01026916503906,147.0399932861328,147.49000549316406,145.61000061035156,146.13999938964844,331000.0
2025-02-20,143.65768432617188,146.67999267578125,147.4199981689453,145.9199981689453,146.97000122070312,283100.0
2025-02-21,143.32469177246094,146.33999633789062,147.38999938964844,145.1999969482422,147.02999877929688,451900.0
2025-02-24,142.60972595214844,145.61000061035156,147.2899932861328,144.36000061035156,146.17999267578125,353300.0
2025-02-25,144.6664581298828,147.7100067138672,148.3300018310547,145.72000122070312,145.8800048828125,336700.0
2025-02-26,143.61849975585938,146.63999938964844,149.17999267578125,146.6199951171875,146.64999389648438,735600.0
2025-02-27,142.6293182373047,145.6300048828125,147.17999267578125,145.36000061035156,146.22999572753906,262800.0
2025-02-28,143.7262420654297,146.75,146.9499969482422,144.6300048828125,146.16000366210938,348700.0
2025-03-03,143.5695343017578,146.58999633789062,148.83999633789062,145.69000244140625,146.97000122070312,394100.0
2025-03-04,142.93292236328125,145.94000244140625,147.9499969482422,145.13999938964844,145.5399932861328,490100.0
2025-03-05,145.3814239501953,148.44000244140625,148.85000610351562,146.0500030517578,146.0500030517578,445100.0
2025-03-06,148.03553771972656,151.14999389648438,151.5,147.05999755859375,147.55999755859375,471700.0
2025-03-07,149.63197326660156,152.77999877929688,153.36000061035156,149.17999267578125,150.50999450683594,480200.0
2025-03-10,147.46751403808594,150.57000732421875,154.0,150.24000549316406,152.07000732421875,391100.0
2025-03-11,144.84274291992188,147.88999938964844,150.55999755859375,147.27000427246094,150.33999633789062,304000.0
2025-03-12,143.02105712890625,146.02999877929688,148.24000549316406,145.55999755859375,148.24000549316406,299700.0
2025-03-13,141.77723693847656,144.75999450683594,147.1999969482422,143.75999450683594,146.41000366210938,238400.0
2025-03-14,143.63807678222656,146.66000366210938,146.88999938964844,144.5399932861328,145.22999572753906,223600.0
2025-03-17,144.7937774658203,147.83999633789062,148.0,145.86000061035156,146.50999450683594,225200.0
2025-03-18,143.2855224609375,146.3000030517578,147.52999877929688,145.77999877929688,147.38999938964844,219900.0
2025-03-19,143.9514923095703,146.97999572753906,147.4600067138672,145.47000122070312,146.33999633789062,279600.0
2025-03-20,142.20819091796875,145.1999969482422,147.4199981689453,143.72999572753906,146.1300048828125,332800.0
2025-03-21,141.83599853515625,144.82000732421875,145.4600067138672,142.36000061035156,144.0,601900.0
2025-03-24,144.94070434570312,147.99000549316406,148.17999267578125,144.91000366210938,145.75,463800.0
2025-03-25,144.1767578125,147.2100067138672,149.22999572753906,145.92999267578125,148.49000549316406,325200.0
2025-03-26,145.4989471435547,148.55999755859375,148.6999969482422,146.3000030517578,147.0500030517578,630400.0
2025-03-27,146.27267456054688,149.35000610351562,149.88999938964844,147.02999877929688,148.27999877929688,312700.0
2025-03-28,143.90252685546875,146.92999267578125,150.0,145.75999450683594,149.2899932861328,239800.0
2025-03-31,145.32264709472656,148.3800048828125,149.08999633789062,146.10000610351562,146.5800018310547,372500.0
2025-04-01,146.02781677246094,149.10000610351562,150.02999877929688,147.3800048828125,148.8800048828125,240000.0
2025-04-02,147.4283447265625,150.52999877929688,151.1300048828125,148.0,148.0,247600.0
2025-04-03,145.60667419433594,148.6699981689453,150.0500030517578,146.4600067138672,146.75999450683594,352900.0
2025-04-04,137.2916259765625,140.17999267578125,147.9600067138672,140.0399932861328,145.22000122070312,531600.0
2025-04-07,131.87551879882812,134.64999389648438,142.1199951171875,130.85000610351562,136.33999633789062,629900.0
2025-04-08,130.9059600830078,133.66000366210938,139.30999755859375,131.27999877929688,137.3800048828125,473800.0
2025-04-09,140.78805541992188,143.75,144.4199981689453,131.32000732421875,133.17999267578125,491800.0
2025-04-10,137.85964965820312,140.75999450683594,143.3699951171875,137.57000732421875,140.0,309000.0
2025-04-11,141.14064025878906,144.11000061035156,144.7100067138672,139.74000549316406,140.8699951171875,203000.0
2025-04-14,142.78602600097656,145.7899932861328,146.39999389648438,143.7899932861328,145.8000030517578,249300.0
2025-04-15,140.97415161132812,143.94000244140625,146.5399932861328,143.77000427246094,146.10000610351562,250700.0
2025-04-16,142.01229858398438,145.0,145.82000732421875,142.57000732421875,144.05999755859375,307700.0
2025-04-17,140.8664093017578,143.8300018310547,145.75999450683594,140.7100067138672,145.39999389648438,390600.0
2025-04-21,139.6421661376953,142.5800018310547,144.0500030517578,141.10000610351562,143.3000030517578,291600.0
2025-04-22,143.0112762451172,146.02000427246094,146.82000732421875,143.58999633789062,144.5,217800.0
2025-04-23,144.99945068359375,148.0500030517578,149.32000732421875,147.22000122070312,147.8699951171875,537000.0
2025-04-24,148.3391876220703,151.4600067138672,152.0,145.4600067138672,147.92999267578125,424500.0
2025-04-25,145.98863220214844,149.05999755859375,153.0,147.57000732421875,150.85000610351562,220500.0
2025-04-28,146.61544799804688,149.6999969482422,151.02999877929688,148.27999877929688,149.8000030517578,235200.0
2025-04-29,147.2030792236328,150.3000030517578,151.97999572753906,149.00999450683594,149.75999450683594,359900.0
2025-04-30,146.86029052734375,149.9499969482422,149.99000549316406,147.2100067138672,149.07000732421875,556200.0
2025-05-01,145.66183471679688,148.27999877929688,150.52999877929688,146.9600067138672,148.4499969482422,445300.0
2025-05-02,149.316162109375,152.0,153.0,147.7899932861328,152.99000549316406,431600.0
2025-05-05,148.8053436279297,151.47999572753906,153.22000122070312,150.8800048828125,151.42999267578125,267600.0
2025-05-06,148.25521850585938,150.9199981689453,152.0399932861328,149.4199981689453,150.25,312000.0
2025-05-07,148.7169189453125,151.38999938964844,153.14999389648438,150.6199951171875,151.8800048828125,318400.0
2025-05-08,150.6521453857422,153.36000061035156,154.57000732421875,151.24000549316406,151.7899932861328,302500.0
2025-05-09,150.61285400390625,153.32000732421875,154.3000030517578,152.94000244140625,153.91000366210938,231600.0
2025-05-12,152.77398681640625,155.52000427246094,156.58999633789062,153.6999969482422,155.7899932861328,352500.0
2025-05-13,150.92718505859375,153.63999938964844,156.30999755859375,153.1999969482422,156.30999755859375,339400.0
2025-05-14,149.7876739501953,152.47999572753906,153.6199951171875,150.97000122070312,153.6199951171875,350100.0
2025-05-15,152.21405029296875,154.9499969482422,155.47999572753906,152.35000610351562,152.35000610351562,278100.0
2025-05-16,154.23768615722656,157.00999450683594,157.14999389648438,154.58999633789062,155.17999267578125,278600.0
2025-05-19,155.288818359375,158.0800018310547,158.33999633789062,156.30999755859375,156.36000061035156,185400.0
2025-05-20,155.7308349609375,158.52999877929688,160.25999450683594,157.91000366210938,160.25999450683594,388100.0
2025-05-21,153.68756103515625,156.4499969482422,157.64999389648438,155.8300018310547,156.86000061035156,319800.0
2025-05-22,153.88404846191406,156.64999389648438,157.25999450683594,155.55999755859375,156.36000061035156,278900.0
2025-05-23,153.18658447265625,155.94000244140625,156.17999267578125,154.25999450683594,155.1199951171875,260500.0
2025-05-27,155.36740112304688,158.16000366210938,158.44000244140625,156.69000244140625,157.02999877929688,352800.0
2025-05-28,154.6208038330078,157.39999389648438,158.83999633789062,157.25999450683594,158.16000366210938,364400.0
2025-05-29,155.53439331054688,158.3300018310547,158.6699981689453,156.82000732421875,157.8300018310547,232100.0
2025-05-30,155.6031494140625,158.39999389648438,158.77999877929688,156.5399932861328,158.24000549316406,335100.0
2025-06-02,154.13946533203125,156.91000366210938,159.07000732421875,155.25999450683594,157.5399932861328,349600.0
2025-06-03,153.50094604492188,156.25999450683594,157.44000244140625,156.0,156.17999267578125,397800.0
2025-06-04,147.7542266845703,150.41000366210938,156.52000427246094,150.2899932861328,156.49000549316406,831900.0
2025-06-05,149.79750061035156,152.49000549316406,153.33999633789062,149.0500030517578,151.5800018310547,482400.0
2025-06-06,150.60301208496094,153.30999755859375,154.47999572753906,152.2100067138672,154.3699951171875,264700.0
2025-06-09,148.9232177734375,151.60000610351562,153.17999267578125,151.36000061035156,152.7100067138672,388400.0
2025-06-10,149.8367919921875,152.52999877929688,153.0,150.86000061035156,152.16000366210938,323500.0
2025-06-11,149.23756408691406,151.9199981689453,153.58999633789062,151.60000610351562,153.0,380800.0
2025-06-12,151.6246795654297,154.35000610351562,154.6199951171875,151.41000366210938,151.41000366210938,337200.0
2025-06-13,148.49099731445312,151.16000366210938,153.72000122070312,150.72999572753906,153.0,361200.0
2025-06-16,149.01161193847656,151.69000244140625,152.89999389648438,151.1199951171875,151.24000549316406,346200.0
2025-06-17,146.81117248535156,149.4499969482422,151.25999450683594,149.1300048828125,150.66000366210938,379700.0
2025-06-18,147.05674743652344,149.6999969482422,150.72999572753906,149.1199951171875,149.1199951171875,383200.0
2025-06-20,147.6461639404297,150.3000030517578,150.77000427246094,148.99000549316406,150.2899932861328,570500.0
2025-06-23,151.07455444335938,153.7899932861328,153.94000244140625,149.49000549316406,149.49000549316406,356500.0
2025-06-24,151.15313720703125,153.8699951171875,154.57000732421875,153.17999267578125,154.57000732421875,246600.0
2025-06-25,151.21206665039062,153.92999267578125,154.52999877929688,152.77000427246094,153.86000061035156,264700.0
2025-06-26,151.7523651123047,154.47999572753906,155.5800018310547,153.1199951171875,154.52999877929688,658200.0
2025-06-27,153.06869506835938,155.82000732421875,156.11000061035156,154.22999572753906,154.66000366210938,643100.0
2025-06-30,153.6679229736328,156.42999267578125,156.5,154.61000061035156,156.02999877929688,315500.0
2025-07-01,156.20237731933594,159.00999450683594,159.8000030517578,155.9600067138672,156.42999267578125,338300.0
2025-07-02,157.48924255371094,160.32000732421875,160.52999877929688,158.64999389648438,159.02000427246094,293500.0
2025-07-03,158.19651794433594,161.0399932861328,161.36000061035156,159.82000732421875,160.60000610351562,235100.0
2025-07-07,158.1179656982422,160.9600067138672,162.3699951171875,160.5500030517578,160.9499969482422,313900.0
2025-07-08,157.22402954101562,160.0500030517578,162.5800018310547,159.85000610351562,160.89999389648438,342700.0
2025-07-09,156.90966796875,159.72999572753906,160.00999450683594,158.10000610351562,159.92999267578125,252800.0
2025-07-10,155.53439331054688,158.3300018310547,160.36000061035156,158.3300018310547,159.19000244140625,361600.0
2025-07-11,155.1119842529297,157.89999389648438,158.55999755859375,156.6300048828125,158.55999755859375,292000.0
2025-07-14,154.77798461914062,157.55999755859375,158.94000244140625,156.69000244140625,157.13999938964844,276600.0
2025-07-15,151.43800354003906,154.16000366210938,158.0,154.07000732421875,157.74000549316406,254200.0
2025-07-16,152.24354553222656,154.97999572753906,155.61000061035156,153.5500030517578,153.9199981689453,261900.0
2025-07-17,153.27499389648438,156.02999877929688,156.41000366210938,154.50999450683594,154.74000549316406,397700.0
2025-07-18,153.6188201904297,156.3800048828125,157.2100067138672,154.9199981689453,156.85000610351562,243100.0
2025-07-21,152.70523071289062,155.4499969482422,156.6699981689453,155.24000549316406,156.4199981689453,205900.0
2025-07-22,156.35955810546875,159.1699981689453,159.36000061035156,155.22999572753906,156.11000061035156,449900.0
2025-07-23,158.8055877685547,161.66000366210938,161.85000610351562,159.13999938964844,160.07000732421875,450500.0
2025-07-24,159.406494140625,161.82000732421875,164.27999877929688,159.7899932861328,160.9600067138672,431900.0
2025-07-25,158.5888671875,160.99000549316406,163.08999633789062,160.77999877929688,162.0500030517578,296300.0
2025-07-28,156.3330078125,158.6999969482422,161.97999572753906,158.16000366210938,161.1999969482422,308500.0
2025-07-29,156.4512176513672,158.82000732421875,159.60000610351562,157.22000122070312,159.0500030517578,388200.0
2025-07-30,154.45150756835938,156.7899932861328,158.92999267578125,154.9199981689453,158.8000030517578,580700.0
2025-07-31,154.79627990722656,157.13999938964844,157.35000610351562,155.17999267578125,155.77999877929688,679700.0
2025-08-01,139.24179077148438,141.35000610351562,158.1199951171875,141.08999633789062,156.97000122070312,1012300.0
2025-08-04,137.05490112304688,139.1300048828125,143.1199951171875,137.0800018310547,143.1199951171875,839000.0
2025-08-05,138.12863159179688,140.22000122070312,141.07000732421875,137.69000244140625,139.33999633789062,540800.0
2025-08-06,136.47369384765625,138.5399932861328,140.75999450683594,137.5500030517578,140.30999755859375,515300.0
2025-08-07,138.39462280273438,140.49000549316406,141.49000549316406,138.91000366210938,139.8000030517578,564000.0
2025-08-08,138.65074157714844,140.75,142.0500030517578,140.5800018310547,140.69000244140625,428700.0
2025-08-11,137.7838592529297,139.8699951171875,141.6199951171875,139.1999969482422,141.3300018310547,349500.0
2025-08-12,137.399658203125,139.47999572753906,141.08999633789062,139.22999572753906,140.22000122070312,286100.0
2025-08-13,139.32058715820312,141.42999267578125,141.44000244140625,139.25,139.69000244140625,729900.0
2025-08-14,136.27667236328125,138.33999633789062,140.19000244140625,136.44000244140625,140.19000244140625,875800.0
2025-08-15,136.65103149414062,138.72000122070312,138.9499969482422,137.8699951171875,138.36000061035156,770500.0
2025-08-18,135.83340454101562,137.88999938964844,139.57000732421875,137.35000610351562,138.88999938964844,529500.0
2025-08-19,137.50804138183594,139.58999633789062,140.52000427246094,138.27000427246094,138.27000427246094,333100.0
2025-08-20,139.0743408203125,141.17999267578125,141.25,139.25999450683594,139.91000366210938,519200.0
2025-08-21,138.54237365722656,140.63999938964844,141.89999389648438,140.24000549316406,140.6300048828125,270400.0
2025-08-22,139.32058715820312,141.42999267578125,143.3300018310547,141.19000244140625,141.25999450683594,356500.0
2025-08-25,137.47848510742188,139.55999755859375,141.61000061035156,138.9600067138672,140.97000122070312,245800.0
2025-08-26,137.62625122070312,139.7100067138672,140.16000366210938,138.00999450683594,139.07000732421875,442900.0
2025-08-27,137.3602752685547,139.44000244140625,140.57000732421875,139.02999877929688,139.08999633789062,729100.0
2025-08-28,136.8184814453125,138.88999938964844,140.1699981689453,137.39999389648438,140.1699981689453,320800.0
2025-08-29,137.1928253173828,139.27000427246094,139.8699951171875,138.35000610351562,139.1699981689453,370700.0
2025-09-02,134.37548828125,136.41000366210938,138.52999877929688,136.1699981689453,137.4199981689453,310600.0
2025-09-03,133.20323181152344,135.22000122070312,136.17999267578125,134.44000244140625,136.0800018310547,382300.0
2025-09-04,136.3948974609375,138.4600067138672,138.47999572753906,135.0399932861328,136.35000610351562,401800.0
2025-09-05,136.55250549316406,138.6199951171875,140.82000732421875,137.6300048828125,139.02000427246094,440800.0
2025-09-08,136.23728942871094,138.3000030517578,140.0,137.67999267578125,138.58999633789062,616100.0
2025-09-09,135.0059356689453,137.0500030517578,139.47999572753906,135.10000610351562,138.25999450683594,637100.0
2025-09-10,134.21786499023438,136.25,137.4600067138672,134.85000610351562,136.1300048828125,685100.0
2025-09-11,135.05520629882812,137.10000610351562,138.27999877929688,135.8699951171875,136.75,477500.0
2025-09-12,133.2130584716797,135.22999572753906,137.0500030517578,135.22000122070312,136.6199951171875,261300.0
2025-09-15,132.8387451171875,134.85000610351562,136.1699981689453,134.6300048828125,135.97000122070312,298000.0
2025-09-16,133.19337463378906,135.2100067138672,135.4199981689453,134.10000610351562,134.7899932861328,474800.0
2025-09-17,132.64169311523438,134.64999389648438,137.07000732421875,134.19000244140625,135.4199981689453,377400.0
2025-09-18,132.49395751953125,134.5,135.50999450683594,134.07000732421875,134.89999389648438,254800.0
2025-09-19,132.4348602294922,134.44000244140625,135.10000610351562,133.33999633789062,134.66000366210938,877200.0
2025-09-22,130.74050903320312,132.72000122070312,134.94000244140625,132.6699981689453,134.1199951171875,402100.0
2025-09-23,130.0509490966797,132.02000427246094,133.9499969482422,131.97000122070312,133.00999450683594,319700.0
2025-09-24,129.53871154785156,131.5,133.30999755859375,131.33999633789062,132.0,353300.0
2025-09-25,128.8688507080078,130.82000732421875,132.52000427246094,130.27000427246094,131.5,388700.0
2025-09-26,130.31690979003906,132.2899932861328,132.42999267578125,130.9600067138672,131.3300018310547,274400.0
2025-09-29,130.29722595214844,132.27000427246094,132.67999267578125,131.36000061035156,132.39999389648438,540600.0
2025-09-30,131.66647338867188,133.66000366210938,133.75999450683594,131.7100067138672,131.7100067138672,310400.0
2025-10-01,132.13931274414062,134.13999938964844,134.36000061035156,132.30999755859375,133.3300018310547,310100.0
2025-10-02,131.1936492919922,133.17999267578125,134.38999938964844,132.9600067138672,133.66000366210938,398500.0
2025-10-03,131.23304748535156,133.22000122070312,133.5800018310547,132.42999267578125,132.47000122070312,402000.0
2025-10-06,129.9130401611328,131.8800048828125,133.1999969482422,131.41000366210938,132.88999938964844,447100.0
2025-10-07,128.64227294921875,130.58999633789062,132.50999450683594,129.80999755859375,132.11000061035156,438800.0
2025-10-08,129.6470489501953,131.61000061035156,132.00999450683594,130.25999450683594,131.17999267578125,361300.0
2025-10-09,128.6619873046875,130.61000061035156,132.83999633789062,130.1999969482422,131.6999969482422,554200.0
2025-10-10,128.97718811035156,130.92999267578125,132.00999450683594,129.88999938964844,130.94000244140625,426000.0
2025-10-13,128.2777862548828,130.22000122070312,132.35000610351562,130.16000366210938,130.99000549316406,311400.0
2025-10-14,127.86406707763672,129.8000030517578,131.05999755859375,129.0399932861328,130.0399932861328,337400.0
2025-10-15,126.18942260742188,128.10000610351562,130.38999938964844,127.86000061035156,129.8000030517578,438300.0
2025-10-16,127.23360443115234,129.16000366210938,129.5,127.8499984741211,128.44000244140625,352700.0
2025-10-17,127.41092681884766,129.33999633789062,130.10000610351562,128.85000610351562,129.16000366210938,339700.0
2025-10-20,128.06106567382812,130.0,130.08999633789062,128.02000427246094,129.61000061035156,240500.0
2025-10-21,128.62258911132812,130.57000732421875,131.77000427246094,129.1199951171875,130.61000061035156,311600.0
2025-10-22,128.1201629638672,130.05999755859375,132.11000061035156,129.97999572753906,130.64999389648438,357500.0
2025-10-23,129.29678344726562,130.77000427246094,131.52999877929688,129.66000366210938,129.74000549316406,378600.0
2025-10-24,127.42807006835938,128.8800048828125,130.88999938964844,128.5399932861328,130.75,489300.0
2025-10-27,127.32919311523438,128.77999877929688,129.89999389648438,128.4499969482422,129.13999938964844,521700.0
2025-10-28,126.6568603515625,128.10000610351562,129.11000061035156,127.47000122070312,128.75,413500.0
2025-10-29,122.9095458984375,124.30999755859375,127.5,123.41999816894531,127.27999877929688,651100.0
2025-10-30,122.95899200439453,124.36000061035156,125.5199966430664,123.04000091552734,124.04000091552734,702600.0
2025-10-31,114.70305633544922,116.01000213623047,118.0999984741211,103.2300033569336,115.29000091552734,2758200.0
2025-11-03,111.84561920166016,113.12000274658203,116.08999633789062,108.29000091552734,116.08999633789062,1661000.0
2025-11-04,112.89366912841797,114.18000030517578,116.0,112.52999877929688,114.36000061035156,1029100.0
2025-11-05,114.26801300048828,115.56999969482422,116.04000091552734,112.7699966430664,114.33000183105469,896900.0
2025-11-06,114.84147644042969,116.1500015258789,116.95999908447266,113.80000305175781,115.0199966430664,880300.0
2025-11-07,114.91068267822266,116.22000122070312,116.91999816894531,114.69000244140625,116.2300033569336,697200.0
2025-11-10,115.06887817382812,116.37999725341797,116.7699966430664,114.0,115.98999786376953,514000.0
2025-11-11,116.93759155273438,118.2699966430664,119.51000213623047,116.95999908447266,116.95999908447266,484800.0
2025-11-12,116.8288345336914,118.16000366210938,119.66999816894531,117.91000366210938,118.33999633789062,547500.0
2025-11-13,118.8458480834961,120.19999694824219,121.87999725341797,118.30000305175781,118.30000305175781,679400.0
2025-11-14,117.27377319335938,118.61000061035156,120.69000244140625,118.38999938964844,119.7699966430664,521200.0
2025-11-17,117.99553680419922,119.33999633789062,119.48999786376953,117.56999969482422,118.48999786376953,820200.0
2025-11-18,117.96587371826172,119.30999755859375,120.11000061035156,118.05999755859375,119.66000366210938,817400.0
2025-11-19,116.6706314086914,118.0,119.51000213623047,117.70999908447266,119.51000213623047,598900.0
2025-11-20,117.24410247802734,118.58000183105469,119.61000061035156,117.37000274658203,118.0,507400.0
2025-11-21,120.15098571777344,121.5199966430664,122.23999786376953,118.12999725341797,118.12999725341797,509100.0
2025-11-24,120.10154724121094,121.47000122070312,122.4000015258789,120.44000244140625,120.8499984741211,740000.0
2025-11-25,122.04935455322266,123.44000244140625,124.08000183105469,122.41000366210938,122.41000366210938,543600.0
2025-11-26,122.41517639160156,123.80999755859375,124.5199966430664,123.0199966430664,123.0199966430664,538000.0
2025-11-28,123.34458923339844,124.75,126.08000183105469,123.62999725341797,123.62999725341797,315700.0
2025-12-01,121.89115142822266,123.27999877929688,124.95999908447266,123.02999877929688,124.87999725341797,536800.0
2025-12-02,120.2300796508789,121.5999984741211,123.86000061035156,120.80000305175781,123.7699966430664,325400.0
2025-12-03,120.68489074707031,122.05999755859375,124.26000213623047,121.41000366210938,121.44999694824219,543100.0
2025-12-04,120.64534759521484,122.0199966430664,124.08000183105469,121.93000030517578,122.19999694824219,708000.0
2025-12-05,120.53659057617188,121.91000366210938,123.51000213623047,120.62000274658203,121.98999786376953,537000.0
2025-12-08,118.71731567382812,120.06999969482422,122.0999984741211,119.30000305175781,120.91999816894531,496600.0
2025-12-09,114.41632080078125,115.72000122070312,119.8499984741211,115.36000061035156,119.5999984741211,640300.0
2025-12-10,115.84998321533203,117.16999816894531,117.80000305175781,115.12999725341797,116.16999816894531,734700.0
2025-12-11,116.68052673339844,118.01000213623047,118.66999816894531,117.16000366210938,117.95999908447266,389700.0
2025-12-12,120.10154724121094,121.47000122070312,121.63999938964844,117.6500015258789,118.5199966430664,656400.0
2025-12-15,120.95185852050781,122.33000183105469,122.45999908447266,120.4800033569336,121.4800033569336,588600.0
2025-12-16,121.44622802734375,122.83000183105469,123.8499984741211,119.5199966430664,122.66999816894531,644800.0
2025-12-17,122.23721313476562,123.62999725341797,124.5999984741211,120.08000183105469,122.11000061035156,567300.0
2025-12-18,121.23859405517578,122.62000274658203,124.12000274658203,122.02999877929688,123.66999816894531,457100.0
2025-12-19,120.02244567871094,121.38999938964844,124.33000183105469,121.26000213623047,123.33999633789062,1300400.0
2025-12-22,121.35723114013672,122.73999786376953,123.69999694824219,121.06999969482422,121.38999938964844,527800.0
2025-12-23,120.81343078613281,122.19000244140625,123.02999877929688,121.31999969482422,122.87000274658203,311700.0
2025-12-24,121.36712646484375,122.75,123.16999816894531,121.76000213623047,122.52999877929688,198000.0
2025-12-26,121.86149597167969,123.25,123.4800033569336,121.72000122070312,122.37000274658203,306000.0
2025-12-29,121.82193756103516,123.20999908447266,124.30999755859375,122.31999969482422,123.29000091552734,400200.0
2025-12-30,121.35723114013672,122.73999786376953,124.30000305175781,122.41999816894531,122.80000305175781,289800.0
2025-12-31,120.58602142333984,121.95999908447266,123.33000183105469,121.3499984741211,121.5199966430664,314300.0
2026-01-02,121.15950012207031,122.54000091552734,123.0,120.77999877929688,121.73999786376953,295100.0
2026-01-05,121.61430358886719,123.0,124.58000183105469,121.76000213623047,121.76000213623047,435700.0
2026-01-06,119.20179748535156,120.55999755859375,122.8499984741211,120.11000061035156,122.22000122070312,777200.0
2026-01-07,119.08314514160156,120.44000244140625,121.94999694824219,117.61000061035156,120.66999816894531,478500.0
2026-01-08,121.06062316894531,122.44000244140625,123.37000274658203,119.5199966430664,119.91999816894531,330000.0
2026-01-09,122.4547348022461,123.8499984741211,124.97000122070312,121.45999908447266,122.08000183105469,429100.0
2026-01-12,123.72030639648438,125.12999725341797,125.30000305175781,122.9800033569336,124.0,477300.0
2026-01-13,122.10867309570312,123.5,125.44000244140625,122.54000091552734,125.05000305175781,351900.0
2026-01-14,125.42092895507812,126.8499984741211,127.16000366210938,124.11000061035156,124.11000061035156,611700.0
2026-01-15,123.7005386352539,125.11000061035156,127.22000122070312,124.5199966430664,127.13999938964844,381000.0
2026-01-16,123.30503845214844,124.70999908447266,125.19999694824219,123.23999786376953,124.0,363400.0
2026-01-20,122.42506408691406,123.81999969482422,125.52999877929688,123.44000244140625,124.9000015258789,275100.0
2026-01-21,123.60166931152344,125.01000213623047,125.62000274658203,123.9000015258789,124.30999755859375,421000.0
2026-01-22,123.0677490234375,124.47000122070312,126.41000366210938,124.05999755859375,125.05000305175781,369700.0
2026-01-23,124.58051300048828,126.0,126.27999877929688,123.87000274658203,124.33999633789062,429500.0
2026-01-26,124.92656707763672,126.3499984741211,126.98999786376953,125.0999984741211,126.41999816894531,315400.0
2026-01-27,123.33470153808594,124.73999786376953,126.30000305175781,124.16999816894531,124.94999694824219,303100.0
2026-01-28,122.3064193725586,123.69999694824219,125.06999969482422,123.25,124.19999694824219,347800.0
2026-01-29,122.4547348022461,123.8499984741211,125.27999877929688,122.58999633789062,124.29000091552734,386000.0
2026-01-30,123.5423355102539,124.94999694824219,125.01000213623047,122.66000366210938,122.91000366210938,512700.0
2026-02-02,123.42369079589844,124.83000183105469,125.91000366210938,124.19999694824219,124.19999694824219,489100.0
2026-02-03,123.22593688964844,124.62999725341797,127.93000030517578,123.69000244140625,123.91000366210938,658700.0
2026-02-04,128.26812744140625,129.22999572753906,130.4199981689453,124.69999694824219,125.70999908447266,589400.0
2026-02-05,123.05722045898438,123.9800033569336,129.0800018310547,121.95999908447266,127.66999816894531,2144200.0
2026-02-06,133.31031799316406,134.30999755859375,135.99000549316406,127.52999877929688,127.52999877929688,1045700.0
2026-02-09,137.43936157226562,138.47000122070312,139.57000732421875,133.25,133.5800018310547,1043400.0
2026-02-10,139.126708984375,140.1699981689453,140.92999267578125,137.80999755859375,137.80999755859375,622100.0
2026-02-11,138.9678955078125,140.00999450683594,140.5500030517578,138.60000610351562,139.02999877929688,584300.0
2026-02-12,139.46417236328125,140.50999450683594,142.0,139.38999938964844,140.16000366210938,572700.0
2026-02-13,141.51876831054688,142.5800018310547,142.92999267578125,140.41000366210938,140.50999450683594,471900.0
2026-02-17,140.59568786621094,141.64999389648438,143.6199951171875,139.25999450683594,139.25999450683594,614700.0
2026-02-18,140.66517639160156,141.72000122070312,143.11000061035156,140.83999633789062,141.47000122070312,582000.0
2026-02-19,142.09445190429688,143.16000366210938,143.32000732421875,141.02999877929688,141.64999389648438,525500.0
2026-02-20,143.97039794921875,145.0500030517578,145.13999938964844,142.0,143.1199951171875,664500.0
2026-02-23,144.63539123535156,145.72000122070312,146.24000549316406,143.1300048828125,143.49000549316406,513500.0
2026-02-24,143.06715393066406,144.13999938964844,146.91000366210938,143.85000610351562,146.07000732421875,429800.0
2026-02-25,141.61801147460938,142.67999267578125,143.66000366210938,140.42999267578125,142.41000366210938,348900.0
2026-02-26,140.73464965820312,141.7899932861328,143.9199981689453,141.0,143.52000427246094,331300.0
2026-02-27,142.64036560058594,143.7100067138672,144.00999450683594,141.0,141.52999877929688,344600.0
2026-03-02,141.60809326171875,142.6699981689453,143.35000610351562,141.6199951171875,143.0,335000.0
2026-03-03,138.71974182128906,139.75999450683594,141.32000732421875,136.9199981689453,140.63999938964844,347300.0
2026-03-04,136.02000427246094,137.0399932861328,139.50999450683594,136.00999450683594,139.33999633789062,389000.0
2026-03-05,133.72720336914062,134.72999572753906,136.33999633789062,134.41000366210938,136.0,452300.0
2026-03-06,131.096923828125,132.0800018310547,134.0,131.0,134.0,398500.0
2026-03-09,132.75448608398438,133.75,133.97999572753906,127.52999877929688,130.97000122070312,545700.0
2026-03-10,131.14654541015625,132.1300048828125,134.1300048828125,131.39999389648438,133.35000610351562,503100.0
2026-03-11,131.03738403320312,132.02000427246094,133.27999877929688,130.0399932861328,131.8000030517578,563800.0
2026-03-12,127.90088653564453,128.86000061035156,132.7899932861328,128.63999938964844,131.27000427246094,620600.0
2026-03-13,127.69245147705078,128.64999389648438,130.14999389648438,127.05000305175781,130.14999389648438,660600.0
2026-03-16,128.08949279785156,129.0500030517578,131.41000366210938,126.0,129.47999572753906,370700.0
2026-03-17,128.5361328125,129.5,131.02000427246094,128.24000549316406,129.97000122070312,276700.0
2026-03-18,123.29542541503906,124.22000122070312,126.58000183105469,121.41999816894531,124.37999725341797,910500.0
2026-03-19,123.04728698730469,123.97000122070312,124.81999969482422,121.44999694824219,123.01000213623047,518500.0
2026-03-20,120.15894317626953,121.05999755859375,124.26000213623047,120.30999755859375,124.26000213623047,1481500.0
2026-03-23,123.21602630615234,124.13999938964844,126.33999633789062,122.98999786376953,123.51000213623047,455200.0
2026-03-24,123.22594451904297,124.1500015258789,125.22000122070312,122.87000274658203,123.16000366210938,405000.0
2026-03-25,124.88351440429688,125.81999969482422,126.56999969482422,123.70999908447266,125.44000244140625,337200.0
2026-03-26,123.76193237304688,124.69000244140625,127.33999633789062,124.12000274658203,125.22000122070312,442100.0
2026-03-27,121.08202362060547,121.98999786376953,124.20999908447266,121.76000213623047,123.94000244140625,381400.0
2026-03-30,122.44182586669922,123.36000061035156,123.94000244140625,121.0999984741211,122.55999755859375,562000.0
2026-03-31,125.08202362060547,126.0199966430664,126.95999908447266,123.58999633789062,124.38999938964844,557800.0
2026-04-01,125.80659484863281,126.75,128.63999938964844,126.33000183105469,127.33999633789062,380200.0
2026-04-02,125.07210540771484,126.01000213623047,127.08999633789062,124.25,125.13999938964844,297500.0
2026-04-06,125.07210540771484,126.01000213623047,126.19000244140625,124.58999633789062,124.58999633789062,461100.0
2026-04-07,124.67507934570312,125.61000061035156,127.16999816894531,124.80000305175781,125.31999969482422,376900.0
2026-04-08,131.03738403320312,132.02000427246094,132.6699981689453,128.14999389648438,131.3800048828125,645200.0
2026-04-09,130.42198181152344,131.39999389648438,132.44000244140625,127.33999633789062,131.22000122070312,424100.0
2026-04-10,130.521240234375,131.5,132.6999969482422,130.85000610351562,132.25,407400.0
2026-04-13,131.126708984375,132.11000061035156,132.4199981689453,127.58000183105469,130.8000030517578,396300.0
2026-04-14,130.03488159179688,131.00999450683594,132.72000122070312,130.97000122070312,131.22999572753906,315500.0
2026-04-15,128.68499755859375,129.64999389648438,131.02999877929688,128.60000610351562,130.80999755859375,407100.0
2026-04-16,127.33512878417969,128.2899932861328,130.3300018310547,126.9000015258789,126.9000015258789,393800.0
2026-04-17,129.65773010253906,130.6300048828125,132.3000030517578,129.64999389648438,129.64999389648438,401100.0
2026-04-20,129.945556640625,130.9199981689453,131.99000549316406,129.66000366210938,130.57000732421875,403600.0
2026-04-21,125.7470474243164,126.69000244140625,132.25,126.69000244140625,130.6999969482422,310200.0
2026-04-22,123.62297058105469,124.55000305175781,127.27999877929688,122.95999908447266,127.27999877929688,458900.0
2026-04-23,124.01007080078125,124.94000244140625,127.44000244140625,124.44000244140625,125.37999725341797,440800.0
2026-04-24,123.15646362304688,124.08000183105469,124.41000366210938,122.56999969482422,124.41000366210938,440900.0
2026-04-27,123.80162811279297,124.7300033569336,126.2300033569336,123.54000091552734,124.04000091552734,359700.0
2026-04-28,124.8338851928711,125.7699966430664,126.6500015258789,123.72000122070312,126.12000274658203,354300.0
2026-04-29,121.9852523803711,122.9000015258789,125.9000015258789,122.79000091552734,125.13999938964844,448400.0
2026-04-30,122.75944519042969,123.68000030517578,126.08000183105469,121.87999725341797,123.43000030517578,764800.0
2026-05-01,118.13412475585938,119.0199966430664,128.47999572753906,117.9000015258789,127.20999908447266,989400.0
2026-05-04,119.7023696899414,120.5999984741211,121.75,117.45999908447266,118.68000030517578,739600.0
2026-05-05,121.1217269897461,122.02999877929688,123.70999908447266,120.81999969482422,120.9000015258789,628600.0
2026-05-06,122.19791412353516,122.62999725341797,126.38999938964844,121.66999816894531,123.18000030517578,917000.0
2026-05-07,124.66918182373047,125.11000061035156,126.47000122070312,122.56999969482422,122.94000244140625,749700.0
2026-05-08,120.56369018554688,120.98999786376953,125.86000061035156,120.38999938964844,125.2300033569336,794900.0
2026-05-11,119.53732299804688,119.95999908447266,121.22000122070312,119.44000244140625,121.22000122070312,706100.0
2026-05-12,117.6340560913086,118.05000305175781,120.86000061035156,117.13999938964844,120.44999694824219,696600.0
2026-05-13,117.46465301513672,117.87999725341797,118.75,116.43000030517578,118.0,679500.0
2026-05-14,117.57426452636719,117.98999786376953,120.16000366210938,117.04000091552734,118.7300033569336,531000.0
2026-05-15,114.26596069335938,114.66999816894531,117.91999816894531,114.47000122070312,117.91000366210938,447000.0
2026-05-18,115.40194702148438,115.80999755859375,117.31999969482422,115.16999816894531,115.5999984741211,433100.0
2026-05-19,113.20970153808594,113.61000061035156,116.04000091552734,112.44999694824219,115.88999938964844,575800.0
2026-05-20,114.85388946533203,115.26000213623047,115.44999694824219,111.55000305175781,114.06999969482422,562600.0
2026-05-21,115.1030044555664,115.51000213623047,116.5,112.7699966430664,116.5,345600.0
2026-05-22,115.82047271728516,116.2300033569336,116.80000305175781,114.70999908447266,115.80000305175781,405800.0
2026-05-26,115.96993255615234,116.37999725341797,116.97000122070312,115.37000274658203,116.19999694824219,344500.0
2026-05-27,114.89374542236328,115.30000305175781,118.11000061035156,114.7300033569336,116.94000244140625,464000.0
2026-05-28,115.58131408691406,115.98999786376953,116.33999633789062,113.3499984741211,114.80999755859375,510100.0
2026-05-29,115.44180297851562,115.8499984741211,117.26000213623047,113.75,115.05999755859375,559600.0
2026-06-01,111.9840316772461,112.37999725341797,115.12999725341797,112.02999877929688,114.69000244140625,706800.0
2026-06-02,111.78473663330078,112.18000030517578,113.05000305175781,111.23999786376953,111.94999694824219,452400.0
2026-06-03,112.13349914550781,112.52999877929688,114.0199966430664,111.69000244140625,111.69000244140625,372600.0
2026-06-04,112.15343475341797,112.55000305175781,115.76000213623047,111.54000091552734,114.94999694824219,337600.0
2026-06-05,112.96057891845703,113.36000061035156,114.58999633789062,111.9800033569336,113.08999633789062,466300.0
2026-06-08,111.54558563232422,111.94000244140625,112.63999938964844,110.94999694824219,112.26000213623047,422200.0
2026-06-09,115.49163055419922,115.9000015258789,116.1500015258789,112.66999816894531,113.27999877929688,444400.0
2026-06-10,114.26596069335938,114.66999816894531,116.55000305175781,113.37000274658203,116.1500015258789,496800.0
2026-06-11,116.16923522949219,116.58000183105469,117.01000213623047,114.26000213623047,115.11000061035156,395200.0
2026-06-12,117.30522155761719,117.72000122070312,118.47000122070312,116.37999725341797,117.9000015258789,342600.0
2026-06-15,117.66394805908203,118.08000183105469,120.73999786376953,117.55999755859375,118.69999694824219,576100.0
2026-06-16,120.22489166259766,120.6500015258789,121.05000305175781,113.7699966430664,118.5,474700.0
2026-06-17,119.56721496582031,119.98999786376953,122.3499984741211,119.45999908447266,121.62000274658203,680500.0
2026-06-18,119.89605712890625,120.31999969482422,122.55000305175781,119.11000061035156,120.45999908447266,750600.0
2026-06-22,119.57718658447266,120.0,121.01000213623047,118.87999725341797,119.55999755859375,468400.0
2026-06-23,120.1850357055664,120.61000061035156,122.58000183105469,119.08000183105469,120.36000061035156,514100.0
2026-06-24,123.84210205078125,124.27999877929688,125.05000305175781,121.7699966430664,121.9800033569336,404900.0
2026-06-25,125.98452758789062,126.43000030517578,128.13999938964844,124.9000015258789,125.7300033569336,363500.0
2026-06-26,125.53611755371094,125.9800033569336,127.12000274658203,124.76000213623047,125.94000244140625,727400.0
2026-06-29,124.84854888916016,125.29000091552734,126.05000305175781,123.91999816894531,125.61000061035156,446600.0
2026-06-30,124.75885772705078,125.19999694824219,126.30999755859375,123.94000244140625,124.5999984741211,329300.0
2026-07-01,124.80868530273438,125.25,126.83999633789062,124.0999984741211,125.12000274658203,405600.0
2026-07-02,126.5325927734375,126.9800033569336,128.22999572753906,125.41000366210938,126.2699966430664,468400.0
2026-07-06,125.56600952148438,126.01000213623047,127.05000305175781,124.18000030517578,126.43000030517578,431400.0
2026-07-07,127.2400894165039,127.69000244140625,128.72000122070312,126.16000366210938,126.62999725341797,392700.0
2026-07-08,123.77234649658203,124.20999908447266,126.70999908447266,123.04000091552734,126.44999694824219,537700.0
2026-07-09,124.0114974975586,124.44999694824219,125.4800033569336,123.77999877929688,124.45999908447266,302100.0
2026-07-10,125.08769989013672,125.52999877929688,126.9800033569336,124.37000274658203,125.0,385200.0
2026-07-13,124.449951171875,124.88999938964844,127.16999816894531,124.4000015258789,126.08999633789062,391600.0
2026-07-14,127.82801055908203,128.27999877929688,129.41000366210938,127.95999908447266,128.4199981689453,739900.0
2026-07-15,128.65509033203125,129.11000061035156,130.77000427246094,128.4499969482422,129.7100067138672,466800.0
2026-07-16,134.27520751953125,134.75,135.0800018310547,130.02000427246094,130.02000427246094,579300.0
2026-07-17,132.1427459716797,132.61000061035156,136.64999389648438,130.7100067138672,135.8300018310547,530800.0
2026-07-20,129.4522705078125,129.91000366210938,132.3800048828125,129.75,132.3800048828125,422900.0
2026-07-21,128.45579528808594,128.91000366210938,131.05999755859375,127.91999816894531,130.52999877929688,328800.0
2026-07-22,128.71487426757812,129.1699981689453,130.47999572753906,128.47999572753906,129.80999755859375,309900.0
2026-07-23,128.54547119140625,129.0,129.82000732421875,128.1699981689453,128.85000610351562,382800.0
2026-07-24,131.8936309814453,132.36000061035156,132.72999572753906,129.58999633789062,129.58999633789062,335900.0
2026-07-27,132.9000701904297,133.3699951171875,134.0800018310547,132.66000366210938,133.19000244140625,411200.0
2026-07-28,137.32443237304688,137.80999755859375,138.02999877929688,134.8300018310547,135.3800048828125,593100.0
2026-07-29,135.75,136.22999572753906,136.60000610351562,134.5500030517578,136.0,580000.0
2026-07-30,133.8699951171875,133.8699951171875,136.39999389648438,133.11000061035156,136.39999389648438,627000.0
2026-07-31,133.9600067138672,133.9600067138672,139.57000732421875,132.1699981689453,137.4600067138672,886500.0
2026-08-03,136.77000427246094,136.77000427246094,138.4600067138672,134.52999877929688,137.22999572753906,642500.0
2026-08-04,136.17999267578125,136.17999267578125,137.8699951171875,135.33999633789062,137.8699951171875,511900.0
2026-08-05,136.75,136.75,136.8800048828125,134.8699951171875,136.8699951171875,454800.0
2026-08-06,135.77999877929688,135.77999877929688,138.69000244140625,134.6699981689453,138.6199951171875,545000.0
2026-08-07,135.4199981689453,135.4199981689453,137.67999267578125,134.7100067138672,135.05999755859375,686300.0
2026-08-10,133.67999267578125,133.67999267578125,134.52000427246094,132.92999267578125,134.38999938964844,446700.0
2026-08-11,134.75,134.75,135.0500030517578,132.8000030517578,132.8000030517578,343700.0
2026-08-12,133.14999389648438,133.14999389648438,134.47000122070312,132.27000427246094,133.50999450683594,315100.0
2026-08-13,132.57000732421875,132.57000732421875,134.44000244140625,132.08999633789062,134.44000244140625,490800.0
2026-08-14,132.10000610351562,132.10000610351562,132.75,129.55999755859375,132.08999633789062,381600.0
2026-08-17,131.74000549316406,131.74000549316406,133.16000366210938,130.22000122070312,133.16000366210938,374500.0
2026-08-18,131.72999572753906,131.72999572753906,133.47000122070312,131.22000122070312,132.75,500100.0
2026-08-19,132.92999267578125,132.92999267578125,134.3800048828125,132.2899932861328,133.0500030517578,390400.0
2026-08-20,132.9600067138672,132.9600067138672,133.8300018310547,130.89999389648438,131.4499969482422,420900.0
2026-08-21,134.8000030517578,134.8000030517578,135.1300048828125,133.10000610351562,134.0399932861328,400500.0
2026-08-24,134.75,134.75,136.33999633789062,134.38999938964844,135.36000061035156,282300.0
2026-08-25,134.72000122070312,134.72000122070312,135.58999633789062,133.22000122070312,135.58999633789062,280900.0
2026-08-26,135.24000549316406,135.24000549316406,136.63999938964844,134.44000244140625,135.0,281400.0
2026-08-27,132.86000061035156,132.86000061035156,134.69000244140625,132.25999450683594,133.77999877929688,295700.0
2026-08-28,132.99000549316406,132.99000549316406,133.66000366210938,132.0399932861328,133.5500030517578,325400.0
2026-08-31,131.6199951171875,131.6199951171875,132.44000244140625,130.8300018310547,132.2100067138672,389200.0
2026-09-01,130.9199981689453,130.9199981689453,132.07000732421875,130.77999877929688,131.64999389648438,418200.0
2026-09-02,130.3300018310547,130.3300018310547,132.25999450683594,129.69000244140625,131.27000427246094,472500.0
2026-09-03,128.30999755859375,128.30999755859375,130.64999389648438,126.98999786376953,130.64999389648438,340000.0
2026-09-04,127.41000366210938,127.41000366210938,128.47000122070312,126.52999877929688,127.52999877929688,324000.0
