Date,Adj Close,Close,High,Low,Open,Volume
2025-01-02,17.408435821533203,18.75,19.649999618530273,18.200000762939453,18.5,19875.0
2025-01-03,17.547704696655273,18.899999618530273,19.0,18.299999237060547,18.75,11876.0
2025-01-07,18.336885452270508,19.75,20.899999618530273,19.0,19.0,20847.0
2025-01-08,18.5225772857666,19.950000762939453,20.100000381469727,19.25,20.100000381469727,5624.0
2025-01-09,18.476152420043945,19.899999618530273,19.950000762939453,19.5,19.950000762939453,4181.0
2025-01-10,18.5225772857666,19.950000762939453,19.950000762939453,19.350000381469727,19.850000381469727,5721.0
2025-01-13,18.336885452270508,19.75,19.950000762939453,19.299999237060547,19.899999618530273,5965.0
2025-01-14,18.151195526123047,19.549999237060547,19.950000762939453,19.399999618530273,19.450000762939453,4554.0
2025-01-15,19.40460205078125,20.899999618530273,21.100000381469727,19.549999237060547,19.799999237060547,10911.0
2025-01-16,20.24020767211914,21.799999237060547,22.200000762939453,20.899999618530273,21.0,19874.0
2025-01-17,20.797277450561523,22.399999618530273,22.399999618530273,21.600000381469727,21.899999618530273,14070.0
2025-01-20,21.261503219604492,22.899999618530273,23.399999618530273,21.799999237060547,22.399999618530273,30229.0
2025-01-21,21.168657302856445,22.799999237060547,23.200000762939453,22.399999618530273,22.899999618530273,6543.0
2025-01-22,20.797277450561523,22.399999618530273,22.799999237060547,21.600000381469727,22.600000381469727,14804.0
2025-01-23,20.797277450561523,22.399999618530273,23.0,21.799999237060547,22.700000762939453,5148.0
2025-01-24,21.075815200805664,22.700000762939453,22.799999237060547,22.100000381469727,22.399999618530273,5713.0
2025-01-27,20.89012336730957,22.5,22.799999237060547,22.100000381469727,22.700000762939453,4845.0
2025-01-28,21.075815200805664,22.700000762939453,22.700000762939453,22.299999237060547,22.5,3510.0
2025-01-29,21.168657302856445,22.799999237060547,22.799999237060547,22.200000762939453,22.700000762939453,6020.0
2025-01-30,21.72572898864746,23.399999618530273,23.700000762939453,22.600000381469727,22.799999237060547,21013.0
2025-01-31,22.189952850341797,23.899999618530273,24.600000381469727,23.399999618530273,23.399999618530273,16552.0
2025-02-03,22.282798767089844,24.0,24.200000762939453,23.399999618530273,23.899999618530273,9953.0
2025-02-04,22.468488693237305,24.200000762939453,24.200000762939453,23.799999237060547,24.0,7011.0
2025-02-05,21.354347229003906,23.0,24.399999618530273,22.700000762939453,24.200000762939453,17616.0
2025-02-06,20.51874542236328,22.100000381469727,24.0,22.100000381469727,23.200000762939453,13452.0
2025-02-07,22.56133270263672,24.299999237060547,24.299999237060547,22.100000381469727,22.100000381469727,29157.0
2025-02-10,23.025558471679688,24.799999237060547,25.0,24.299999237060547,24.5,26869.0
2025-02-11,22.93271255493164,24.700000762939453,25.0,24.299999237060547,25.0,7901.0
2025-02-12,23.118404388427734,24.899999618530273,25.0,24.200000762939453,24.899999618530273,15097.0
2025-02-13,23.025558471679688,24.799999237060547,25.0,24.200000762939453,25.0,9272.0
2025-02-14,22.74702262878418,24.5,24.899999618530273,24.200000762939453,24.799999237060547,7517.0
2025-02-17,23.76831817626953,25.600000381469727,25.799999237060547,24.399999618530273,24.5,11495.0
2025-02-18,23.954008102416992,25.799999237060547,25.899999618530273,25.299999237060547,25.600000381469727,5377.0
2025-02-19,23.675474166870117,25.5,25.799999237060547,25.299999237060547,25.799999237060547,8697.0
2025-02-20,23.58262825012207,25.399999618530273,25.899999618530273,25.299999237060547,25.799999237060547,5878.0
2025-02-21,23.954008102416992,25.799999237060547,25.799999237060547,25.200000762939453,25.399999618530273,7599.0
2025-02-24,23.861164093017578,25.700000762939453,25.899999618530273,25.200000762939453,25.799999237060547,6012.0
2025-02-25,23.675474166870117,25.5,25.600000381469727,24.899999618530273,25.600000381469727,5095.0
2025-02-26,23.025558471679688,24.799999237060547,25.5,24.299999237060547,25.5,7317.0
2025-02-27,21.818572998046875,23.5,25.200000762939453,22.5,24.799999237060547,14565.0
2025-02-28,21.632883071899414,23.299999237060547,23.799999237060547,22.5,23.799999237060547,6330.0
2025-03-03,21.261503219604492,22.899999618530273,23.0,22.100000381469727,23.0,11267.0
2025-03-04,19.961673736572266,21.5,23.0,20.799999237060547,22.5,21904.0
2025-03-05,22.282798767089844,24.0,24.700000762939453,23.0,23.0,15772.0
2025-03-06,22.74702262878418,24.5,25.200000762939453,24.0,24.600000381469727,13298.0
2025-03-07,22.282798767089844,24.0,24.399999618530273,24.0,24.100000381469727,3628.0
2025-03-10,22.282798767089844,24.0,24.600000381469727,23.700000762939453,24.399999618530273,3262.0
2025-03-11,22.00426483154297,23.700000762939453,24.0,23.200000762939453,24.0,3457.0
2025-03-12,21.911418914794922,23.600000381469727,23.700000762939453,22.799999237060547,23.700000762939453,2022.0
2025-03-13,21.818572998046875,23.5,23.700000762939453,22.799999237060547,23.600000381469727,2545.0
2025-03-14,21.261503219604492,22.899999618530273,23.5,22.600000381469727,23.5,11655.0
2025-03-17,20.982969284057617,22.600000381469727,23.5,22.5,22.700000762939453,13662.0
2025-03-18,22.189952850341797,23.899999618530273,24.5,22.700000762939453,22.700000762939453,9715.0
2025-03-19,22.654178619384766,24.399999618530273,24.700000762939453,23.899999618530273,24.399999618530273,3896.0
2025-03-20,21.818572998046875,23.5,24.899999618530273,23.100000381469727,24.899999618530273,7108.0
2025-03-21,21.261503219604492,22.899999618530273,23.899999618530273,22.799999237060547,23.899999618530273,5512.0
2025-03-24,21.354347229003906,23.0,23.0,22.600000381469727,23.0,7732.0
2025-03-25,24.325387954711914,26.200000762939453,26.700000762939453,24.200000762939453,24.299999237060547,44073.0
2025-03-26,23.861164093017578,25.700000762939453,26.399999618530273,24.799999237060547,26.399999618530273,19344.0
2025-03-27,24.975303649902344,26.899999618530273,26.899999618530273,25.299999237060547,26.299999237060547,17059.0
2025-03-28,25.625219345092773,27.600000381469727,27.899999618530273,26.799999237060547,26.899999618530273,16813.0
2025-03-31,24.882457733154297,26.799999237060547,27.399999618530273,25.700000762939453,27.0,14582.0
2025-04-01,25.06814956665039,27.0,27.0,25.799999237060547,25.799999237060547,6981.0
2025-04-02,24.882457733154297,26.799999237060547,27.0,26.200000762939453,27.0,2621.0
2025-04-03,23.954008102416992,25.799999237060547,26.799999237060547,25.799999237060547,26.299999237060547,6761.0
2025-04-04,23.21124839782715,25.0,26.299999237060547,24.200000762939453,26.299999237060547,20231.0
2025-04-07,22.74702262878418,24.5,25.0,22.899999618530273,24.0,23465.0
2025-04-08,23.118404388427734,24.899999618530273,25.200000762939453,24.5,25.0,4045.0
2025-04-09,22.74702262878418,24.5,25.0,24.100000381469727,24.5,8454.0
2025-04-10,23.58262825012207,25.399999618530273,26.399999618530273,24.700000762939453,25.799999237060547,9984.0
2025-04-11,23.21124839782715,25.0,25.700000762939453,24.700000762939453,25.700000762939453,3865.0
2025-04-14,23.675474166870117,25.5,25.5,25.0,25.399999618530273,2280.0
2025-04-15,23.21124839782715,25.0,25.5,24.600000381469727,25.5,8373.0
2025-04-16,22.375642776489258,24.100000381469727,25.0,24.100000381469727,25.0,17007.0
2025-04-17,22.654178619384766,24.399999618530273,24.899999618530273,24.100000381469727,24.5,5112.0
2025-04-22,23.118404388427734,24.899999618530273,24.899999618530273,24.299999237060547,24.399999618530273,5272.0
2025-04-23,23.304094314575195,25.100000381469727,25.299999237060547,24.5,24.899999618530273,4176.0
2025-04-24,23.025558471679688,24.799999237060547,25.100000381469727,24.100000381469727,24.600000381469727,8021.0
2025-04-25,23.025558471679688,24.799999237060547,25.100000381469727,24.5,24.799999237060547,3342.0
2025-04-28,22.839868545532227,24.600000381469727,24.899999618530273,24.399999618530273,24.799999237060547,3481.0
2025-04-29,23.118404388427734,24.899999618530273,25.0,24.399999618530273,24.600000381469727,4914.0
2025-04-30,23.025558471679688,24.799999237060547,25.0,24.399999618530273,24.899999618530273,1452.0
2025-05-02,22.468488693237305,24.200000762939453,25.0,23.700000762939453,24.799999237060547,8912.0
2025-05-05,23.025558471679688,24.799999237060547,24.899999618530273,24.0,24.200000762939453,5808.0
2025-05-06,22.839868545532227,24.600000381469727,24.899999618530273,24.5,24.799999237060547,2257.0
2025-05-07,22.74702262878418,24.5,24.700000762939453,24.399999618530273,24.600000381469727,4129.0
2025-05-08,22.74702262878418,24.5,24.5,24.100000381469727,24.5,4304.0
2025-05-09,22.74702262878418,24.5,24.600000381469727,24.0,24.5,4566.0
2025-05-12,22.654178619384766,24.399999618530273,24.700000762939453,24.200000762939453,24.700000762939453,4439.0
2025-05-13,23.21124839782715,25.0,25.899999618530273,23.799999237060547,24.5,21166.0
2025-05-14,23.861164093017578,25.700000762939453,25.899999618530273,25.200000762939453,25.399999618530273,7493.0
2025-05-15,23.861164093017578,25.700000762939453,25.899999618530273,25.299999237060547,25.5,7093.0
2025-05-16,24.696767807006836,26.600000381469727,27.200000762939453,25.700000762939453,25.799999237060547,12241.0
2025-05-19,25.06814956665039,27.0,27.0,26.200000762939453,26.700000762939453,16495.0
2025-05-20,27.29642677307129,29.399999618530273,29.399999618530273,27.399999618530273,27.700000762939453,37901.0
2025-05-21,29.710397720336914,32.0,33.0,28.600000381469727,29.399999618530273,44552.0
2025-05-22,28.689102172851562,30.899999618530273,32.5,29.700000762939453,31.899999618530273,17827.0
2025-05-23,27.57496452331543,29.700000762939453,31.0,28.100000381469727,30.799999237060547,26924.0
2025-05-26,29.617551803588867,31.899999618530273,32.0,29.5,29.799999237060547,21875.0
2025-05-27,29.524707794189453,31.799999237060547,32.0,31.700000762939453,31.899999618530273,7655.0
2025-05-28,28.78194808959961,31.0,31.799999237060547,30.5,31.799999237060547,3989.0
2025-05-29,29.43186378479004,31.700000762939453,32.0,30.600000381469727,31.700000762939453,12022.0
2025-05-30,29.524707794189453,31.799999237060547,31.799999237060547,31.299999237060547,31.799999237060547,2137.0
2025-06-02,29.803241729736328,32.099998474121094,32.400001525878906,30.200000762939453,31.799999237060547,7498.0
2025-06-03,30.63884735107422,33.0,33.5,32.20000076293945,32.400001525878906,11916.0
2025-06-04,31.103071212768555,33.5,33.900001525878906,32.79999923706055,33.0,8527.0
2025-06-05,31.567298889160156,34.0,34.5,33.599998474121094,33.900001525878906,5715.0
2025-06-06,31.1959171295166,33.599998474121094,34.0,32.400001525878906,34.0,4840.0
2025-06-09,30.731691360473633,33.099998474121094,34.0,33.099998474121094,33.599998474121094,4842.0
2025-06-10,30.174623489379883,32.5,33.5,31.5,33.400001525878906,12375.0
2025-06-11,29.246171951293945,31.5,32.79999923706055,31.200000762939453,32.20000076293945,4057.0
2025-06-12,29.710397720336914,32.0,32.79999923706055,31.5,31.5,3358.0
2025-06-13,30.546005249023438,32.900001525878906,33.0,31.200000762939453,31.600000381469727,3724.0
2025-06-16,30.453157424926758,32.79999923706055,33.0,32.20000076293945,32.900001525878906,3457.0
2025-06-17,31.567298889160156,34.0,34.0,32.5,32.79999923706055,8642.0
2025-06-18,33.331356048583984,35.900001525878906,36.79999923706055,34.400001525878906,34.400001525878906,19279.0
2025-06-20,34.3526496887207,37.0,38.0,36.099998474121094,36.20000076293945,29534.0
2025-06-23,33.331356048583984,35.900001525878906,37.70000076293945,35.5,36.70000076293945,12245.0
2025-06-24,33.981266021728516,36.599998474121094,37.400001525878906,36.0,36.599998474121094,6202.0
2025-06-25,34.816871643066406,37.5,37.70000076293945,36.599998474121094,37.0,5780.0
2025-06-26,34.53833770751953,37.20000076293945,37.70000076293945,36.099998474121094,37.70000076293945,5251.0
2025-06-27,33.51704025268555,36.099998474121094,37.20000076293945,35.29999923706055,37.20000076293945,13171.0
2025-06-30,32.86712646484375,35.400001525878906,36.099998474121094,34.29999923706055,36.099998474121094,6825.0
2025-07-01,33.79557800292969,36.400001525878906,36.400001525878906,34.79999923706055,35.400001525878906,6525.0
2025-07-02,34.63118362426758,37.29999923706055,37.5,35.79999923706055,36.599998474121094,4842.0
2025-07-03,35.188255310058594,37.900001525878906,37.900001525878906,36.599998474121094,37.5,10672.0
2025-07-04,37.0451545715332,39.900001525878906,40.20000076293945,37.900001525878906,38.0,26178.0
2025-07-07,39.36627960205078,42.400001525878906,43.599998474121094,40.29999923706055,40.29999923706055,27948.0
2025-07-08,41.59455490112305,44.79999923706055,45.0,42.20000076293945,42.400001525878906,39866.0
2025-07-09,43.17292404174805,46.5,46.599998474121094,44.79999923706055,46.099998474121094,19990.0
2025-07-10,39.92334747314453,43.0,49.400001525878906,42.5,46.599998474121094,60074.0
2025-07-11,40.8517951965332,44.0,45.0,43.20000076293945,43.20000076293945,19874.0
2025-07-14,42.61585235595703,45.900001525878906,46.099998474121094,44.0,44.0,15733.0
2025-07-15,43.17292404174805,46.5,47.79999923706055,45.900001525878906,45.900001525878906,21711.0
2025-07-16,43.45145797729492,46.79999923706055,47.5,45.400001525878906,46.5,17510.0
2025-07-17,42.61585235595703,45.900001525878906,46.900001525878906,45.0,46.79999923706055,8064.0
2025-07-18,42.61585235595703,45.900001525878906,46.5,45.099998474121094,45.79999923706055,4304.0
2025-07-21,40.201881408691406,43.29999923706055,46.0,43.0,46.0,18055.0
2025-07-22,40.48041534423828,43.599998474121094,44.599998474121094,40.5,43.599998474121094,32125.0
2025-07-23,39.08774185180664,42.099998474121094,44.0,42.0,43.20000076293945,7693.0
2025-07-24,38.8092041015625,41.79999923706055,42.900001525878906,39.900001525878906,42.79999923706055,18418.0
2025-07-25,38.437828063964844,41.400001525878906,41.70000076293945,40.400001525878906,41.599998474121094,5717.0
2025-07-28,39.45912170410156,42.5,43.79999923706055,41.400001525878906,41.400001525878906,10188.0
2025-07-29,41.68740463256836,44.900001525878906,44.900001525878906,42.599998474121094,43.0,9923.0
2025-07-30,40.944637298583984,44.099998474121094,44.900001525878906,42.70000076293945,44.79999923706055,4636.0
2025-07-31,39.36627960205078,42.400001525878906,44.5,42.099998474121094,44.400001525878906,5714.0
2025-08-01,39.273433685302734,42.29999923706055,43.400001525878906,41.70000076293945,42.400001525878906,5884.0
2025-08-04,39.73765563964844,42.79999923706055,43.5,41.900001525878906,42.29999923706055,6893.0
2025-08-05,39.830501556396484,42.900001525878906,43.400001525878906,42.400001525878906,42.599998474121094,2896.0
2025-08-06,39.644813537597656,42.70000076293945,43.599998474121094,42.29999923706055,43.20000076293945,3950.0
2025-08-07,40.109039306640625,43.20000076293945,43.20000076293945,42.5,42.70000076293945,4972.0
2025-08-08,40.0993766784668,41.5,42.70000076293945,40.599998474121094,42.099998474121094,4926.0
2025-08-11,39.42300033569336,40.79999923706055,42.400001525878906,40.400001525878906,41.0,8033.0
2025-08-12,38.650001525878906,40.0,41.099998474121094,40.0,40.400001525878906,5376.0
2025-08-13,37.87700271606445,39.20000076293945,40.0,38.400001525878906,40.0,15211.0
2025-08-14,37.00737380981445,38.29999923706055,39.20000076293945,37.599998474121094,39.20000076293945,9231.0
2025-08-18,35.94449996948242,37.20000076293945,38.599998474121094,36.70000076293945,38.29999923706055,25061.0
2025-08-19,38.456748962402344,39.79999923706055,40.79999923706055,36.5,37.20000076293945,17934.0
2025-08-20,40.96900177001953,42.400001525878906,42.599998474121094,39.900001525878906,39.900001525878906,14213.0
2025-08-21,41.54875183105469,43.0,44.20000076293945,42.70000076293945,42.70000076293945,13207.0
2025-08-22,40.77574920654297,42.20000076293945,43.20000076293945,40.29999923706055,43.0,13080.0
2025-08-25,39.906124114990234,41.29999923706055,42.0,40.599998474121094,42.0,4533.0
2025-08-26,40.77574920654297,42.20000076293945,42.79999923706055,41.099998474121094,41.29999923706055,4734.0
2025-08-27,40.87237548828125,42.29999923706055,42.900001525878906,41.20000076293945,42.900001525878906,2995.0
2025-08-28,41.54875183105469,43.0,44.5,42.29999923706055,42.79999923706055,21013.0
2025-08-29,39.71287536621094,41.099998474121094,43.79999923706055,40.599998474121094,43.29999923706055,18635.0
2025-09-01,38.74662399291992,40.099998474121094,42.0,39.599998474121094,41.099998474121094,11382.0
2025-09-02,39.32637405395508,40.70000076293945,40.70000076293945,39.70000076293945,40.0,3560.0
2025-09-03,40.58250045776367,42.0,42.20000076293945,40.70000076293945,40.70000076293945,5412.0
2025-09-04,44.060997009277344,45.599998474121094,45.599998474121094,43.0,43.900001525878906,31739.0
2025-09-05,44.060997009277344,45.599998474121094,46.599998474121094,44.599998474121094,45.79999923706055,15701.0
2025-09-08,46.766502380371094,48.400001525878906,48.900001525878906,45.70000076293945,45.70000076293945,15240.0
2025-09-09,45.41374969482422,47.0,48.29999923706055,46.70000076293945,48.0,6753.0
2025-09-10,46.18674850463867,47.79999923706055,47.900001525878906,45.20000076293945,46.5,8108.0
2025-09-11,45.510372161865234,47.099998474121094,47.79999923706055,46.099998474121094,47.79999923706055,3392.0
2025-09-12,45.41374969482422,47.0,47.70000076293945,46.20000076293945,47.20000076293945,3161.0
2025-09-15,45.3171272277832,46.900001525878906,47.400001525878906,46.20000076293945,47.0,3754.0
2025-09-16,45.41374969482422,47.0,47.400001525878906,46.5,46.900001525878906,3757.0
2025-09-17,46.47662353515625,48.099998474121094,48.20000076293945,46.5,46.5,11230.0
2025-09-18,48.3125,50.0,50.599998474121094,48.099998474121094,48.29999923706055,14586.0
2025-09-19,48.69900131225586,50.400001525878906,51.79999923706055,49.0,49.900001525878906,19399.0
2025-09-22,50.82474899291992,52.599998474121094,52.599998474121094,50.0,51.0,10319.0
2025-09-23,51.01799774169922,52.79999923706055,53.20000076293945,51.400001525878906,53.0,20025.0
2025-09-24,50.631500244140625,52.400001525878906,52.79999923706055,50.599998474121094,52.79999923706055,7894.0
2025-09-25,50.43825149536133,52.20000076293945,52.79999923706055,51.599998474121094,52.400001525878906,2886.0
2025-09-26,49.47200012207031,51.20000076293945,53.0,51.20000076293945,52.79999923706055,2610.0
2025-09-29,46.86312484741211,48.5,52.599998474121094,48.400001525878906,52.599998474121094,17786.0
2025-09-30,46.380001068115234,48.0,49.29999923706055,46.599998474121094,48.599998474121094,9139.0
2025-10-01,46.380001068115234,48.0,48.79999923706055,47.20000076293945,47.900001525878906,3601.0
2025-10-02,48.3125,50.0,50.0,48.20000076293945,48.5,7198.0
2025-10-03,46.86312484741211,48.5,50.0,48.0,50.0,6137.0
2025-10-06,45.7036247253418,47.29999923706055,48.29999923706055,46.599998474121094,48.20000076293945,8310.0
2025-10-07,45.41374969482422,47.0,48.0,46.599998474121094,47.599998474121094,3059.0
2025-10-08,44.83400344848633,46.400001525878906,47.400001525878906,45.79999923706055,47.400001525878906,6907.0
2025-10-09,44.254249572753906,45.79999923706055,46.79999923706055,44.5,46.20000076293945,7754.0
2025-10-10,46.86312484741211,48.5,48.599998474121094,46.70000076293945,46.70000076293945,28573.0
2025-10-13,48.3125,50.0,50.599998474121094,47.5,48.0,9769.0
2025-10-14,45.993499755859375,47.599998474121094,51.0,46.0,50.79999923706055,17550.0
2025-10-15,48.892250061035156,50.599998474121094,51.20000076293945,48.400001525878906,48.400001525878906,14963.0
2025-10-16,46.47662353515625,48.099998474121094,50.599998474121094,47.79999923706055,50.599998474121094,10363.0
2025-10-17,47.346248626708984,49.0,49.400001525878906,48.20000076293945,48.599998474121094,7319.0
2025-10-20,48.3125,50.0,50.20000076293945,49.400001525878906,49.400001525878906,13972.0
2025-10-21,48.892250061035156,50.599998474121094,50.79999923706055,50.0,50.0,5561.0
2025-10-22,48.3125,50.0,50.599998474121094,49.599998474121094,50.599998474121094,1431.0
2025-10-23,47.92599868774414,49.599998474121094,50.0,49.20000076293945,50.0,2858.0
2025-10-24,48.02262496948242,49.70000076293945,49.900001525878906,49.099998474121094,49.5,2064.0
2025-10-27,47.442874908447266,49.099998474121094,50.0,48.29999923706055,49.70000076293945,4509.0
2025-10-28,46.66987609863281,48.29999923706055,49.79999923706055,48.29999923706055,49.29999923706055,6810.0
2025-10-29,47.15299987792969,48.79999923706055,49.20000076293945,48.0,48.29999923706055,7664.0
2025-10-30,46.959747314453125,48.599998474121094,48.900001525878906,48.0,48.20000076293945,2729.0
2025-10-31,49.278751373291016,51.0,51.599998474121094,49.599998474121094,50.599998474121094,12153.0
2025-11-03,50.631500244140625,52.400001525878906,52.400001525878906,51.0,51.0,13722.0
2025-11-04,49.47200012207031,51.20000076293945,52.400001525878906,51.0,52.400001525878906,3388.0
2025-11-05,49.278751373291016,51.0,51.20000076293945,50.400001525878906,51.20000076293945,1240.0
2025-11-06,46.959747314453125,48.599998474121094,51.0,48.5,51.0,6708.0
2025-11-07,47.346248626708984,49.0,49.5,48.29999923706055,48.5,3452.0
2025-11-10,48.3125,50.0,50.0,48.70000076293945,49.0,2788.0
2025-11-12,48.02262496948242,49.70000076293945,50.0,49.099998474121094,50.0,1577.0
2025-11-13,47.63612365722656,49.29999923706055,49.70000076293945,49.0,49.5,1442.0
2025-11-14,47.15299987792969,48.79999923706055,49.099998474121094,48.400001525878906,49.099998474121094,2873.0
2025-11-17,46.66987609863281,48.29999923706055,48.79999923706055,47.5,48.79999923706055,3659.0
2025-11-18,44.4474983215332,46.0,47.900001525878906,46.0,47.900001525878906,7360.0
2025-11-19,45.22050094604492,46.79999923706055,47.5,46.0,46.0,4281.0
2025-11-20,47.829376220703125,49.5,49.900001525878906,47.5,47.599998474121094,8167.0
2025-11-21,45.3171272277832,46.900001525878906,49.5,45.400001525878906,49.0,10788.0
2025-11-24,43.57787322998047,45.099998474121094,47.0,45.0,46.900001525878906,13833.0
2025-11-25,45.3171272277832,46.900001525878906,47.79999923706055,45.400001525878906,45.400001525878906,6333.0
2025-11-26,47.15299987792969,48.79999923706055,48.79999923706055,46.5,46.5,8568.0
2025-11-27,47.346248626708984,49.0,49.400001525878906,48.099998474121094,48.79999923706055,4394.0
2025-11-28,47.53950119018555,49.20000076293945,49.79999923706055,48.5,48.5,3174.0
2025-12-01,50.244998931884766,52.0,52.400001525878906,50.20000076293945,50.20000076293945,22783.0
2025-12-02,49.278751373291016,51.0,54.0,49.70000076293945,52.400001525878906,40860.0
2025-12-03,49.858497619628906,51.599998474121094,51.79999923706055,50.400001525878906,51.599998474121094,8167.0
2025-12-04,48.50575256347656,50.20000076293945,52.20000076293945,49.20000076293945,51.599998474121094,15529.0
2025-12-05,49.08549880981445,50.79999923706055,51.0,49.20000076293945,50.599998474121094,2719.0
2025-12-08,49.278751373291016,51.0,51.599998474121094,50.20000076293945,51.0,5527.0
2025-12-09,49.278751373291016,51.0,51.79999923706055,50.79999923706055,51.0,3634.0
2025-12-10,48.3125,50.0,51.599998474121094,49.5,50.79999923706055,6243.0
2025-12-11,49.08549880981445,50.79999923706055,50.79999923706055,49.099998474121094,50.599998474121094,6062.0
2025-12-12,49.278751373291016,51.0,51.0,50.20000076293945,50.79999923706055,5333.0
2025-12-15,52.1775016784668,54.0,54.0,51.20000076293945,51.400001525878906,16092.0
2025-12-16,55.07625198364258,57.0,58.20000076293945,54.20000076293945,54.599998474121094,16552.0
2025-12-17,54.11000061035156,56.0,57.0,55.400001525878906,57.0,8629.0
2025-12-18,54.11000061035156,56.0,56.79999923706055,55.79999923706055,56.0,6413.0
2025-12-19,53.916748046875,55.79999923706055,56.599998474121094,55.400001525878906,56.20000076293945,3431.0
2025-12-22,55.269500732421875,57.20000076293945,57.20000076293945,56.20000076293945,56.79999923706055,7868.0
2025-12-23,58.74800109863281,60.79999923706055,61.599998474121094,57.599998474121094,57.79999923706055,14668.0
2025-12-29,58.94124984741211,61.0,62.0,60.0,61.0,10035.0
2025-12-30,57.588497161865234,59.599998474121094,61.599998474121094,58.599998474121094,61.20000076293945,7961.0
2026-01-02,57.20199966430664,59.20000076293945,59.79999923706055,57.0,59.599998474121094,15290.0
2026-01-05,59.32775115966797,61.400001525878906,61.79999923706055,58.20000076293945,59.599998474121094,16282.0
2026-01-07,60.294002532958984,62.400001525878906,65.0,61.599998474121094,61.599998474121094,33997.0
2026-01-08,59.907501220703125,62.0,63.20000076293945,61.0,62.599998474121094,11131.0
2026-01-09,58.94124984741211,61.0,62.0,59.400001525878906,62.0,22663.0
2026-01-12,57.3952522277832,59.400001525878906,61.0,55.400001525878906,60.400001525878906,25051.0
2026-01-13,57.008750915527344,59.0,59.79999923706055,58.400001525878906,59.400001525878906,7600.0
2026-01-14,55.07625198364258,57.0,58.79999923706055,56.400001525878906,58.400001525878906,17678.0
2026-01-15,55.07625198364258,57.0,57.20000076293945,56.599998474121094,57.20000076293945,8139.0
2026-01-16,54.30324935913086,56.20000076293945,57.0,55.79999923706055,57.0,11865.0
2026-01-19,53.14374923706055,55.0,56.599998474121094,54.599998474121094,56.20000076293945,11462.0
2026-01-20,53.14374923706055,55.0,55.20000076293945,54.0,55.0,7393.0
2026-01-21,55.46275329589844,57.400001525878906,58.0,55.0,55.0,19724.0
2026-01-22,56.622249603271484,58.599998474121094,59.0,57.79999923706055,57.79999923706055,22608.0
2026-01-23,55.65599822998047,57.599998474121094,60.0,56.599998474121094,59.79999923706055,11926.0
2026-01-26,55.269500732421875,57.20000076293945,58.20000076293945,56.599998474121094,57.599998474121094,6741.0
2026-01-27,53.916748046875,55.79999923706055,57.20000076293945,55.0,57.20000076293945,11962.0
2026-01-28,55.07625198364258,57.0,58.400001525878906,55.400001525878906,55.79999923706055,7535.0
2026-01-29,55.84925079345703,57.79999923706055,59.20000076293945,55.79999923706055,56.0,13771.0
2026-01-30,55.84925079345703,57.79999923706055,59.0,56.599998474121094,57.79999923706055,6474.0
2026-02-02,55.269500732421875,57.20000076293945,57.400001525878906,53.0,57.400001525878906,24683.0
2026-02-03,57.588497161865234,59.599998474121094,60.0,57.400001525878906,58.0,10867.0
2026-02-04,58.94124984741211,61.0,61.79999923706055,59.400001525878906,60.0,12096.0
2026-02-05,56.04249954223633,58.0,62.0,56.79999923706055,60.79999923706055,9606.0
2026-02-06,59.32775115966797,61.400001525878906,61.400001525878906,58.599998474121094,60.400001525878906,13940.0
2026-02-09,57.974998474121094,60.0,62.79999923706055,59.20000076293945,61.400001525878906,17267.0
2026-02-10,55.84925079345703,57.79999923706055,59.79999923706055,57.79999923706055,58.400001525878906,18455.0
2026-02-11,57.008750915527344,59.0,59.79999923706055,57.400001525878906,58.0,3798.0
2026-02-12,57.974998474121094,60.0,60.400001525878906,59.0,59.599998474121094,2942.0
2026-02-13,56.81549835205078,58.79999923706055,59.0,57.0,59.0,9773.0
2026-02-16,56.04249954223633,58.0,60.20000076293945,57.79999923706055,59.0,2441.0
2026-02-17,56.42900085449219,58.400001525878906,59.599998474121094,57.599998474121094,59.599998474121094,2082.0
2026-02-18,56.04249954223633,58.0,59.400001525878906,57.79999923706055,58.400001525878906,3575.0
2026-02-19,54.49650192260742,56.400001525878906,59.0,56.0,58.0,9756.0
2026-02-20,55.07625198364258,57.0,58.0,56.599998474121094,56.599998474121094,2846.0
2026-02-23,54.68974685668945,56.599998474121094,59.400001525878906,55.79999923706055,57.0,5383.0
2026-02-24,53.916748046875,55.79999923706055,57.599998474121094,55.0,56.79999923706055,7531.0
2026-02-25,53.14374923706055,55.0,56.0,54.0,55.599998474121094,6874.0
2026-02-26,52.75724792480469,54.599998474121094,55.599998474121094,54.599998474121094,55.20000076293945,6320.0
2026-02-27,52.564002990722656,54.400001525878906,54.400001525878906,53.400001525878906,54.400001525878906,7651.0
2026-03-02,51.984249114990234,53.79999923706055,54.0,50.20000076293945,53.400001525878906,18861.0
2026-03-03,48.69900131225586,50.400001525878906,55.0,50.400001525878906,54.0,15327.0
2026-03-04,52.95050048828125,54.79999923706055,55.20000076293945,50.400001525878906,50.400001525878906,9285.0
2026-03-05,52.75724792480469,54.599998474121094,57.0,53.400001525878906,54.0,7491.0
2026-03-06,50.244998931884766,52.0,54.400001525878906,51.599998474121094,54.0,8424.0
2026-03-09,49.47200012207031,51.20000076293945,51.79999923706055,50.0,51.0,18908.0
2026-03-10,50.43825149536133,52.20000076293945,54.400001525878906,51.0,51.79999923706055,10816.0
2026-03-11,48.3125,50.0,52.0,49.29999923706055,52.0,12386.0
2026-03-12,47.732749938964844,49.400001525878906,50.400001525878906,49.29999923706055,50.20000076293945,6366.0
2026-03-13,46.47662353515625,48.099998474121094,49.20000076293945,47.29999923706055,49.20000076293945,10944.0
2026-03-16,44.73737335205078,46.29999923706055,48.0,44.5,47.599998474121094,30753.0
2026-03-17,45.80025100708008,47.400001525878906,48.400001525878906,46.0,46.29999923706055,30306.0
2026-03-18,44.930625915527344,46.5,48.70000076293945,46.5,48.0,12050.0
2026-03-19,44.4474983215332,46.0,46.20000076293945,44.099998474121094,46.0,9814.0
2026-03-20,44.83400344848633,46.400001525878906,48.0,45.099998474121094,46.0,7144.0
2026-03-23,44.4474983215332,46.0,46.79999923706055,43.0,45.0,34307.0
2026-03-24,44.35087585449219,45.900001525878906,46.400001525878906,45.0,45.900001525878906,3701.0
2026-03-25,47.732749938964844,49.400001525878906,50.79999923706055,48.20000076293945,48.70000076293945,22302.0
2026-03-26,47.92599868774414,49.599998474121094,50.79999923706055,48.0,50.599998474121094,7198.0
2026-03-27,48.02262496948242,49.70000076293945,50.0,48.599998474121094,49.900001525878906,5016.0
2026-03-30,46.18674850463867,47.79999923706055,49.0,46.5,49.0,12043.0
2026-03-31,47.05637741088867,48.70000076293945,48.900001525878906,47.099998474121094,47.70000076293945,3001.0
2026-04-01,47.732749938964844,49.400001525878906,50.599998474121094,48.5,48.599998474121094,12100.0
2026-04-02,47.732749938964844,49.400001525878906,49.400001525878906,48.0,48.0,5736.0
2026-04-07,46.91143798828125,48.54999923706055,49.900001525878906,47.29999923706055,49.29999923706055,8844.0
2026-04-08,48.07093811035156,49.75,52.0,48.54999923706055,49.54999923706055,18412.0
2026-04-09,47.491188049316406,49.150001525878906,50.0,48.95000076293945,49.20000076293945,5176.0
2026-04-10,51.21125030517578,53.0,53.70000076293945,52.0,52.0,50179.0
2026-04-13,54.786376953125,56.70000076293945,56.900001525878906,52.599998474121094,52.900001525878906,37668.0
2026-04-14,56.81549835205078,58.79999923706055,59.900001525878906,56.20000076293945,57.20000076293945,52147.0
2026-04-15,56.42900085449219,58.400001525878906,59.79999923706055,58.29999923706055,59.0,13918.0
2026-04-16,55.172874450683594,57.099998474121094,59.20000076293945,56.599998474121094,58.400001525878906,20973.0
2026-04-17,56.81549835205078,58.79999923706055,61.0,57.20000076293945,57.20000076293945,36344.0
2026-04-20,59.907501220703125,62.0,62.20000076293945,58.79999923706055,59.0,25263.0
2026-04-21,62.806251525878906,65.0,65.0,62.5,63.0,40483.0
2026-04-22,61.743377685546875,63.900001525878906,66.0,63.5,64.9000015258789,20770.0
2026-04-23,61.260250091552734,63.400001525878906,64.0,60.5,63.900001525878906,17951.0
2026-04-24,60.294002532958984,62.400001525878906,63.5,61.599998474121094,63.400001525878906,9694.0
2026-04-27,62.61300277709961,64.80000305175781,65.19999694824219,62.400001525878906,62.400001525878906,13995.0
2026-04-28,60.294002532958984,62.400001525878906,65.0,62.29999923706055,64.80000305175781,9085.0
2026-04-29,57.68512725830078,59.70000076293945,62.5,59.0,62.400001525878906,14643.0
2026-04-30,59.907501220703125,62.0,62.0,58.5,59.70000076293945,23449.0
2026-05-04,61.84000015258789,64.0,64.5999984741211,62.099998474121094,62.5,13949.0
2026-05-05,62.41975021362305,64.5999984741211,64.5999984741211,63.79999923706055,64.5999984741211,12819.0
2026-05-06,63.772499084472656,66.0,67.80000305175781,64.19999694824219,64.9000015258789,34293.0
2026-05-07,64.54550170898438,66.80000305175781,67.0,66.0,66.30000305175781,9556.0
2026-05-08,63.096126556396484,65.30000305175781,67.0,63.599998474121094,67.0,11080.0
2026-05-11,61.64674758911133,63.79999923706055,65.30000305175781,62.70000076293945,65.30000305175781,10430.0
2026-05-12,57.974998474121094,60.0,63.900001525878906,60.0,63.900001525878906,23677.0
2026-05-13,57.68512725830078,59.70000076293945,61.79999923706055,59.400001525878906,60.29999923706055,11758.0
2026-05-14,60.487247467041016,62.599998474121094,62.599998474121094,60.0,60.0,13530.0
2026-05-15,61.743377685546875,63.900001525878906,65.5,60.0,62.79999923706055,14605.0
2026-05-18,61.16362380981445,63.29999923706055,65.0,62.0,64.0,10423.0
2026-05-19,61.55012512207031,63.70000076293945,66.0,62.0,63.20000076293945,20862.0
2026-05-20,58.071624755859375,60.099998474121094,64.69999694824219,58.70000076293945,64.4000015258789,56924.0
2026-05-21,58.94124984741211,61.0,61.5,60.20000076293945,60.20000076293945,9223.0
2026-05-22,56.5256233215332,58.5,61.0,57.20000076293945,61.0,32432.0
2026-05-25,55.65599822998047,57.599998474121094,58.70000076293945,56.70000076293945,58.5,17822.0
2026-05-26,57.29862594604492,59.29999923706055,59.599998474121094,57.70000076293945,57.70000076293945,8238.0
2026-05-27,55.65599822998047,57.599998474121094,59.599998474121094,57.0,59.29999923706055,9504.0
2026-05-28,55.75262451171875,57.70000076293945,58.0,57.099998474121094,57.5,4353.0
2026-05-29,56.42900085449219,58.400001525878906,59.0,57.5,57.70000076293945,4707.0
2026-06-01,55.75262451171875,57.70000076293945,58.400001525878906,57.599998474121094,57.79999923706055,10514.0
2026-06-02,56.139122009277344,58.099998474121094,59.20000076293945,57.70000076293945,57.900001525878906,8273.0
2026-06-03,56.04249954223633,58.0,58.900001525878906,58.0,58.099998474121094,11676.0
2026-06-05,56.04249954223633,58.0,58.79999923706055,58.0,58.0,4524.0
2026-06-08,56.04249954223633,58.0,58.20000076293945,57.5,58.0,5353.0
2026-06-09,55.55937576293945,57.5,59.599998474121094,57.0,58.0,6925.0
2026-06-10,54.49650192260742,56.400001525878906,57.79999923706055,56.20000076293945,57.79999923706055,3980.0
2026-06-11,53.916748046875,55.79999923706055,56.400001525878906,55.79999923706055,56.0,10478.0
2026-06-12,54.49650192260742,56.400001525878906,57.0,55.79999923706055,55.79999923706055,7131.0
2026-06-15,55.55937576293945,57.5,58.5,56.29999923706055,56.400001525878906,5140.0
2026-06-16,55.94587707519531,57.900001525878906,59.599998474121094,57.29999923706055,57.79999923706055,6924.0
2026-06-17,54.68974685668945,56.599998474121094,58.20000076293945,56.0,58.20000076293945,7595.0
2026-06-18,53.530250549316406,55.400001525878906,56.5,55.0,56.5,10587.0
2026-06-19,53.33700180053711,55.20000076293945,56.400001525878906,52.599998474121094,55.29999923706055,17774.0
2026-06-22,51.984249114990234,53.79999923706055,55.70000076293945,53.5,55.20000076293945,8424.0
2026-06-23,51.694374084472656,53.5,54.0,53.5,53.79999923706055,2390.0
2026-06-24,50.631500244140625,52.400001525878906,54.0,52.29999923706055,53.5,4499.0
2026-06-25,50.728126525878906,52.5,54.0,51.900001525878906,52.400001525878906,5411.0
2026-06-26,51.694374084472656,53.5,54.900001525878906,52.29999923706055,53.29999923706055,8437.0
2026-06-29,53.14374923706055,55.0,56.0,52.900001525878906,54.0,8532.0
2026-06-30,57.008750915527344,59.0,61.400001525878906,56.0,56.0,13461.0
2026-07-01,56.5256233215332,58.5,59.79999923706055,58.0,59.79999923706055,5542.0
2026-07-02,57.974998474121094,60.0,61.0,58.0,58.5,6277.0
2026-07-03,59.810874938964844,61.900001525878906,62.5,60.5,61.0,12950.0
2026-07-06,60.873748779296875,63.0,64.0,62.29999923706055,62.5,12535.0
2026-07-07,60.873748779296875,63.0,64.0,61.599998474121094,63.900001525878906,6841.0
2026-07-08,58.55474853515625,60.599998474121094,63.599998474121094,58.0,63.599998474121094,13552.0
2026-07-09,58.458126068115234,60.5,61.70000076293945,59.20000076293945,60.900001525878906,6527.0
2026-07-10,60.77712631225586,62.900001525878906,63.20000076293945,61.0,61.599998474121094,8737.0
2026-07-13,60.1973762512207,62.29999923706055,64.0,62.0,63.400001525878906,7125.0
2026-07-14,58.94124984741211,61.0,62.20000076293945,60.400001525878906,61.5,6149.0
2026-07-15,58.94124984741211,61.0,62.79999923706055,60.400001525878906,61.400001525878906,8021.0
2026-07-16,59.13450241088867,61.20000076293945,61.599998474121094,60.400001525878906,60.900001525878906,5561.0
2026-07-17,59.13450241088867,61.20000076293945,61.70000076293945,60.400001525878906,61.20000076293945,5673.0
2026-07-20,58.36149978637695,60.400001525878906,61.099998474121094,59.70000076293945,60.900001525878906,6218.0
2026-07-21,59.520999908447266,61.599998474121094,61.900001525878906,60.0,60.400001525878906,7681.0
2026-07-22,60.68050003051758,62.79999923706055,63.0,61.70000076293945,61.79999923706055,8221.0
2026-07-23,59.907501220703125,62.0,63.0,61.5,63.0,4105.0
2026-07-24,59.71424865722656,61.79999923706055,62.400001525878906,61.20000076293945,61.900001525878906,4148.0
2026-07-27,59.71424865722656,61.79999923706055,62.29999923706055,61.0,62.0,2858.0
2026-07-28,59.13450241088867,61.20000076293945,61.79999923706055,60.900001525878906,61.79999923706055,5837.0
2026-07-29,58.94124984741211,61.0,61.400001525878906,60.5,61.0,3167.0
2026-07-30,59.520999908447266,61.599998474121094,62.5,61.20000076293945,61.20000076293945,6848.0
2026-07-31,58.94124984741211,61.0,61.900001525878906,60.400001525878906,61.900001525878906,6421.0
2026-08-03,59.23112487792969,61.29999923706055,61.79999923706055,61.0,61.0,5019.0
2026-08-04,60.68050003051758,62.79999923706055,63.29999923706055,61.29999923706055,61.29999923706055,15341.0
2026-08-05,60.873748779296875,63.0,64.0,62.0,62.79999923706055,10895.0
2026-08-06,61.84000015258789,64.0,64.0,63.0,63.0,8659.0
2026-08-07,62.5,62.5,63.400001525878906,60.400001525878906,63.400001525878906,17359.0
2026-08-10,61.400001525878906,61.400001525878906,62.79999923706055,61.20000076293945,62.5,5888.0
2026-08-11,61.0,61.0,62.0,60.400001525878906,62.0,7298.0
2026-08-12,60.599998474121094,60.599998474121094,61.20000076293945,59.5,61.20000076293945,9539.0
2026-08-13,59.400001525878906,59.400001525878906,61.099998474121094,59.29999923706055,61.0,7726.0
2026-08-14,60.0,60.0,60.29999923706055,58.599998474121094,59.400001525878906,8485.0
2026-08-17,58.5,58.5,60.099998474121094,58.5,59.20000076293945,6715.0
2026-08-18,60.0,60.0,61.5,58.099998474121094,58.599998474121094,7350.0
2026-08-19,58.70000076293945,58.70000076293945,61.0,57.0,61.0,10480.0
2026-08-20,59.0,59.0,60.20000076293945,58.79999923706055,59.70000076293945,3715.0
2026-08-21,59.900001525878906,59.900001525878906,61.5,58.0,58.599998474121094,11714.0
2026-08-24,59.5,59.5,60.70000076293945,59.5,60.20000076293945,5330.0
2026-08-25,60.70000076293945,60.70000076293945,60.79999923706055,59.0,60.599998474121094,5475.0
2026-08-26,61.0,61.0,61.5,60.099998474121094,60.79999923706055,8172.0
2026-08-27,60.599998474121094,60.599998474121094,61.0,60.20000076293945,61.0,5011.0
2026-08-28,56.29999923706055,56.29999923706055,58.900001525878906,56.0,58.900001525878906,38368.0
2026-08-31,54.20000076293945,54.20000076293945,56.400001525878906,53.0,56.400001525878906,30284.0
2026-09-01,54.099998474121094,54.099998474121094,55.5,53.79999923706055,54.400001525878906,14636.0
2026-09-02,53.79999923706055,53.79999923706055,54.0,53.29999923706055,53.5,9383.0
2026-09-03,52.400001525878906,52.400001525878906,53.70000076293945,51.900001525878906,53.70000076293945,16042.0
2026-09-04,53.400001525878906,53.400001525878906,54.0,53.0,53.79999923706055,13441.0
2026-09-07,53.400001525878906,53.400001525878906,54.79999923706055,53.29999923706055,54.400001525878906,15639.0
