Date,Adj Close,Close,High,Low,Open,Volume
2025-01-02,0.5950000286102295,0.5950000286102295,0.5950000286102295,0.5950000286102295,0.5950000286102295,0.0
2025-01-03,0.6000000238418579,0.6000000238418579,0.6000000238418579,0.5950000286102295,0.5950000286102295,8808.0
2025-01-06,0.5799999833106995,0.5799999833106995,0.5950000286102295,0.5799999833106995,0.5950000286102295,33422.0
2025-01-07,0.5799999833106995,0.5799999833106995,0.5799999833106995,0.5799999833106995,0.5799999833106995,0.0
2025-01-08,0.6000000238418579,0.6000000238418579,0.6200000047683716,0.5950000286102295,0.5950000286102295,5449.0
2025-01-09,0.6000000238418579,0.6000000238418579,0.6000000238418579,0.6000000238418579,0.6000000238418579,472.0
2025-01-10,0.6000000238418579,0.6000000238418579,0.6000000238418579,0.6000000238418579,0.6000000238418579,1005.0
2025-01-13,0.6000000238418579,0.6000000238418579,0.6000000238418579,0.6000000238418579,0.6000000238418579,8154.0
2025-01-14,0.6000000238418579,0.6000000238418579,0.6000000238418579,0.5899999737739563,0.5950000286102295,782.0
2025-01-15,0.6000000238418579,0.6000000238418579,0.6000000238418579,0.6000000238418579,0.6000000238418579,1800.0
2025-01-16,0.6000000238418579,0.6000000238418579,0.6000000238418579,0.6000000238418579,0.6000000238418579,0.0
2025-01-17,0.5799999833106995,0.5799999833106995,0.5849999785423279,0.5799999833106995,0.5849999785423279,11554.0
2025-01-20,0.5799999833106995,0.5799999833106995,0.5799999833106995,0.5799999833106995,0.5799999833106995,0.0
2025-01-21,0.5899999737739563,0.5899999737739563,0.5899999737739563,0.5899999737739563,0.5899999737739563,5000.0
2025-01-22,0.5649999976158142,0.5649999976158142,0.5649999976158142,0.550000011920929,0.5550000071525574,7990.0
2025-01-23,0.6150000095367432,0.6150000095367432,0.6200000047683716,0.5899999737739563,0.5899999737739563,21611.0
2025-01-24,0.6000000238418579,0.6000000238418579,0.6200000047683716,0.6000000238418579,0.6200000047683716,1248.0
2025-01-28,0.6000000238418579,0.6000000238418579,0.6050000190734863,0.6000000238418579,0.6050000190734863,9228.0
2025-01-29,0.5699999928474426,0.5699999928474426,0.5799999833106995,0.5699999928474426,0.5799999833106995,23710.0
2025-01-30,0.5699999928474426,0.5699999928474426,0.5699999928474426,0.5625,0.5625,4736.0
2025-01-31,0.5600000023841858,0.5600000023841858,0.5799999833106995,0.550000011920929,0.5674999952316284,34380.0
2025-02-03,0.5649999976158142,0.5649999976158142,0.5799999833106995,0.5649999976158142,0.5799999833106995,10321.0
2025-02-04,0.5649999976158142,0.5649999976158142,0.5649999976158142,0.5649999976158142,0.5649999976158142,0.0
2025-02-05,0.5649999976158142,0.5649999976158142,0.5649999976158142,0.5649999976158142,0.5649999976158142,1000.0
2025-02-06,0.6000000238418579,0.6000000238418579,0.6000000238418579,0.5799999833106995,0.5799999833106995,6628.0
2025-02-07,0.6000000238418579,0.6000000238418579,0.6000000238418579,0.6000000238418579,0.6000000238418579,0.0
2025-02-10,0.6000000238418579,0.6000000238418579,0.6000000238418579,0.6000000238418579,0.6000000238418579,0.0
2025-02-11,0.6000000238418579,0.6000000238418579,0.6000000238418579,0.6000000238418579,0.6000000238418579,0.0
2025-02-12,0.6000000238418579,0.6000000238418579,0.6000000238418579,0.6000000238418579,0.6000000238418579,0.0
2025-02-13,0.5899999737739563,0.5899999737739563,0.5950000286102295,0.5799999833106995,0.5799999833106995,32310.0
2025-02-14,0.5899999737739563,0.5899999737739563,0.5899999737739563,0.5899999737739563,0.5899999737739563,0.0
2025-02-17,0.5899999737739563,0.5899999737739563,0.5899999737739563,0.5899999737739563,0.5899999737739563,0.0
2025-02-18,0.6000000238418579,0.6000000238418579,0.6000000238418579,0.5899999737739563,0.5899999737739563,9610.0
2025-02-19,0.5899999737739563,0.5899999737739563,0.6050000190734863,0.5899999737739563,0.6050000190734863,33040.0
2025-02-20,0.5600000023841858,0.5600000023841858,0.5799999833106995,0.5600000023841858,0.5799999833106995,40257.0
2025-02-21,0.5099999904632568,0.5099999904632568,0.5649999976158142,0.5099999904632568,0.5649999976158142,17667.0
2025-02-24,0.5299999713897705,0.5299999713897705,0.5299999713897705,0.5299999713897705,0.5299999713897705,8092.0
2025-02-25,0.5199999809265137,0.5199999809265137,0.5199999809265137,0.48500001430511475,0.5049999952316284,38483.0
2025-02-26,0.5199999809265137,0.5199999809265137,0.5199999809265137,0.5199999809265137,0.5199999809265137,3371.0
2025-02-27,0.5199999809265137,0.5199999809265137,0.5600000023841858,0.5199999809265137,0.5199999809265137,32985.0
2025-02-28,0.5199999809265137,0.5199999809265137,0.5199999809265137,0.5199999809265137,0.5199999809265137,7499.0
2025-03-03,0.5199999809265137,0.5199999809265137,0.5199999809265137,0.5199999809265137,0.5199999809265137,0.0
2025-03-04,0.5199999809265137,0.5199999809265137,0.5199999809265137,0.5199999809265137,0.5199999809265137,0.0
2025-03-05,0.5099999904632568,0.5099999904632568,0.5099999904632568,0.5,0.5099999904632568,20370.0
2025-03-06,0.4699999988079071,0.4699999988079071,0.4749999940395355,0.4699999988079071,0.4749999940395355,10000.0
2025-03-07,0.4699999988079071,0.4699999988079071,0.4699999988079071,0.4699999988079071,0.4699999988079071,6961.0
2025-03-10,0.4699999988079071,0.4699999988079071,0.4699999988079071,0.4699999988079071,0.4699999988079071,0.0
2025-03-11,0.4699999988079071,0.4699999988079071,0.4699999988079071,0.4699999988079071,0.4699999988079071,27000.0
2025-03-12,0.4699999988079071,0.4699999988079071,0.4699999988079071,0.4699999988079071,0.4699999988079071,1050.0
2025-03-13,0.5149999856948853,0.5149999856948853,0.5149999856948853,0.4699999988079071,0.4699999988079071,382512.0
2025-03-14,0.550000011920929,0.550000011920929,0.550000011920929,0.550000011920929,0.550000011920929,1754.0
2025-03-17,0.6150000095367432,0.6150000095367432,0.6150000095367432,0.5799999833106995,0.5799999833106995,6276.0
2025-03-18,0.5649999976158142,0.5649999976158142,0.574999988079071,0.5649999976158142,0.574999988079071,40645.0
2025-03-19,0.550000011920929,0.550000011920929,0.5799999833106995,0.550000011920929,0.5799999833106995,89288.0
2025-03-20,0.5600000023841858,0.5600000023841858,0.5600000023841858,0.5600000023841858,0.5600000023841858,2098.0
2025-03-21,0.5600000023841858,0.5600000023841858,0.5600000023841858,0.5600000023841858,0.5600000023841858,2099.0
2025-03-24,0.5600000023841858,0.5600000023841858,0.5600000023841858,0.5600000023841858,0.5600000023841858,0.0
2025-03-25,0.5600000023841858,0.5600000023841858,0.5600000023841858,0.5600000023841858,0.5600000023841858,0.0
2025-03-26,0.5699999928474426,0.5699999928474426,0.5699999928474426,0.5699999928474426,0.5699999928474426,4807.0
2025-03-27,0.5699999928474426,0.5699999928474426,0.5699999928474426,0.5699999928474426,0.5699999928474426,0.0
2025-03-28,0.5699999928474426,0.5699999928474426,0.5699999928474426,0.5699999928474426,0.5699999928474426,0.0
2025-03-31,0.5400000214576721,0.5400000214576721,0.5400000214576721,0.5400000214576721,0.5400000214576721,4000.0
2025-04-01,0.47999998927116394,0.47999998927116394,0.5400000214576721,0.47999998927116394,0.5400000214576721,2805.0
2025-04-02,0.4699999988079071,0.4699999988079071,0.4699999988079071,0.4699999988079071,0.4699999988079071,5000.0
2025-04-03,0.4699999988079071,0.4699999988079071,0.4699999988079071,0.4699999988079071,0.4699999988079071,7000.0
2025-04-04,0.46000000834465027,0.46000000834465027,0.4699999988079071,0.46000000834465027,0.4699999988079071,19492.0
2025-04-07,0.46000000834465027,0.46000000834465027,0.46000000834465027,0.46000000834465027,0.46000000834465027,591.0
2025-04-08,0.46000000834465027,0.46000000834465027,0.46000000834465027,0.46000000834465027,0.46000000834465027,0.0
2025-04-09,0.46000000834465027,0.46000000834465027,0.46000000834465027,0.41999998688697815,0.41999998688697815,8449.0
2025-04-10,0.4950000047683716,0.4950000047683716,0.4950000047683716,0.44999998807907104,0.44999998807907104,4406.0
2025-04-11,0.46000000834465027,0.46000000834465027,0.46000000834465027,0.45500001311302185,0.45500001311302185,28654.0
2025-04-14,0.44999998807907104,0.44999998807907104,0.44999998807907104,0.44999998807907104,0.44999998807907104,755.0
2025-04-15,0.5249999761581421,0.5249999761581421,0.5249999761581421,0.4749999940395355,0.4749999940395355,55682.0
2025-04-16,0.5249999761581421,0.5249999761581421,0.5249999761581421,0.5249999761581421,0.5249999761581421,0.0
2025-04-17,0.5099999904632568,0.5099999904632568,0.5199999809265137,0.5099999904632568,0.5199999809265137,21868.0
2025-04-22,0.5099999904632568,0.5099999904632568,0.5099999904632568,0.5099999904632568,0.5099999904632568,7606.0
2025-04-23,0.5149999856948853,0.5149999856948853,0.5149999856948853,0.5074999928474426,0.5074999928474426,12499.0
2025-04-24,0.5149999856948853,0.5149999856948853,0.5199999809265137,0.5074999928474426,0.5199999809265137,30196.0
2025-04-28,0.5199999809265137,0.5199999809265137,0.5199999809265137,0.5199999809265137,0.5199999809265137,16199.0
2025-04-29,0.5,0.5,0.5099999904632568,0.5,0.5099999904632568,71947.0
2025-04-30,0.5,0.5,0.5,0.5,0.5,0.0
2025-05-01,0.49000000953674316,0.49000000953674316,0.5,0.4699999988079071,0.5,31019.0
2025-05-02,0.5,0.5,0.5,0.46000000834465027,0.4699999988079071,26271.0
2025-05-05,0.5,0.5,0.5,0.5,0.5,0.0
2025-05-06,0.5,0.5,0.5,0.5,0.5,0.0
2025-05-07,0.5,0.5,0.5,0.5,0.5,0.0
2025-05-08,0.5,0.5,0.5,0.5,0.5,0.0
2025-05-09,0.5,0.5,0.5,0.5,0.5,0.0
2025-05-12,0.5,0.5,0.5,0.5,0.5,25.0
2025-05-13,0.5,0.5,0.5,0.5,0.5,0.0
2025-05-14,0.5099999904632568,0.5099999904632568,0.5099999904632568,0.49000000953674316,0.49000000953674316,7389.0
2025-05-15,0.49000000953674316,0.49000000953674316,0.49000000953674316,0.49000000953674316,0.49000000953674316,1305.0
2025-05-16,0.49000000953674316,0.49000000953674316,0.49000000953674316,0.49000000953674316,0.49000000953674316,0.0
2025-05-19,0.5,0.5,0.5,0.49000000953674316,0.49000000953674316,110.0
2025-05-20,0.49000000953674316,0.49000000953674316,0.49000000953674316,0.49000000953674316,0.49000000953674316,6052.0
2025-05-21,0.49000000953674316,0.49000000953674316,0.49000000953674316,0.48500001430511475,0.49000000953674316,6593.0
2025-05-22,0.5099999904632568,0.5099999904632568,0.5099999904632568,0.4650000035762787,0.49000000953674316,69740.0
2025-05-23,0.5299999713897705,0.5299999713897705,0.550000011920929,0.5149999856948853,0.5249999761581421,5215.0
2025-05-26,0.5299999713897705,0.5299999713897705,0.5299999713897705,0.5299999713897705,0.5299999713897705,3000.0
2025-05-27,0.48500001430511475,0.48500001430511475,0.4950000047683716,0.4699999988079071,0.4950000047683716,10585.0
2025-05-28,0.4950000047683716,0.4950000047683716,0.5,0.47999998927116394,0.47999998927116394,7129.0
2025-05-29,0.4950000047683716,0.4950000047683716,0.4950000047683716,0.4950000047683716,0.4950000047683716,0.0
2025-05-30,0.5199999809265137,0.5199999809265137,0.5199999809265137,0.5,0.5,46890.0
2025-06-02,0.5450000166893005,0.5450000166893005,0.5450000166893005,0.5199999809265137,0.5199999809265137,11410.0
2025-06-03,0.5450000166893005,0.5450000166893005,0.5450000166893005,0.5450000166893005,0.5450000166893005,47339.0
2025-06-04,0.5450000166893005,0.5450000166893005,0.5450000166893005,0.5450000166893005,0.5450000166893005,0.0
2025-06-05,0.5450000166893005,0.5450000166893005,0.5450000166893005,0.5450000166893005,0.5450000166893005,0.0
2025-06-06,0.4699999988079071,0.4699999988079071,0.4699999988079071,0.4699999988079071,0.4699999988079071,1699.0
2025-06-10,0.46000000834465027,0.46000000834465027,0.46000000834465027,0.46000000834465027,0.46000000834465027,34000.0
2025-06-11,0.46000000834465027,0.46000000834465027,0.46000000834465027,0.46000000834465027,0.46000000834465027,0.0
2025-06-12,0.46000000834465027,0.46000000834465027,0.46000000834465027,0.46000000834465027,0.46000000834465027,2000.0
2025-06-13,0.46000000834465027,0.46000000834465027,0.4699999988079071,0.46000000834465027,0.4699999988079071,21492.0
2025-06-16,0.46000000834465027,0.46000000834465027,0.46000000834465027,0.46000000834465027,0.46000000834465027,1000.0
2025-06-17,0.4749999940395355,0.4749999940395355,0.4749999940395355,0.44999998807907104,0.44999998807907104,33325.0
2025-06-18,0.4399999976158142,0.4399999976158142,0.44999998807907104,0.4399999976158142,0.44999998807907104,7389.0
2025-06-19,0.4399999976158142,0.4399999976158142,0.4399999976158142,0.4399999976158142,0.4399999976158142,30834.0
2025-06-20,0.4650000035762787,0.4650000035762787,0.4699999988079071,0.45500001311302185,0.45500001311302185,13459.0
2025-06-23,0.46000000834465027,0.46000000834465027,0.4650000035762787,0.46000000834465027,0.4650000035762787,15934.0
2025-06-24,0.4350000023841858,0.4350000023841858,0.45500001311302185,0.4350000023841858,0.45500001311302185,19233.0
2025-06-25,0.6399999856948853,0.6399999856948853,0.6499999761581421,0.46000000834465027,0.46000000834465027,177193.0
2025-06-26,0.5899999737739563,0.5899999737739563,0.75,0.5899999737739563,0.699999988079071,514707.0
2025-06-27,0.6000000238418579,0.6000000238418579,0.6449999809265137,0.6000000238418579,0.6000000238418579,84838.0
2025-06-30,0.6200000047683716,0.6200000047683716,0.6549999713897705,0.6000000238418579,0.6449999809265137,71546.0
2025-07-01,0.6000000238418579,0.6000000238418579,0.6200000047683716,0.6000000238418579,0.6200000047683716,34615.0
2025-07-02,0.5849999785423279,0.5849999785423279,0.6000000238418579,0.5699999928474426,0.6000000238418579,55537.0
2025-07-03,0.5799999833106995,0.5799999833106995,0.5899999737739563,0.5799999833106995,0.5899999737739563,39954.0
2025-07-04,0.5699999928474426,0.5699999928474426,0.574999988079071,0.5699999928474426,0.574999988079071,14965.0
2025-07-07,0.5699999928474426,0.5699999928474426,0.574999988079071,0.5699999928474426,0.574999988079071,28011.0
2025-07-08,0.5600000023841858,0.5600000023841858,0.5699999928474426,0.5600000023841858,0.5699999928474426,38478.0
2025-07-09,0.550000011920929,0.550000011920929,0.5699999928474426,0.550000011920929,0.5699999928474426,37768.0
2025-07-10,0.5699999928474426,0.5699999928474426,0.5699999928474426,0.5600000023841858,0.5600000023841858,6534.0
2025-07-11,0.5699999928474426,0.5699999928474426,0.6000000238418579,0.5699999928474426,0.5950000286102295,56660.0
2025-07-14,0.6299999952316284,0.6299999952316284,0.6299999952316284,0.5799999833106995,0.5799999833106995,23177.0
2025-07-15,0.6850000023841858,0.6850000023841858,0.7400000095367432,0.6499999761581421,0.6499999761581421,74496.0
2025-07-16,0.7900000214576721,0.7900000214576721,0.7900000214576721,0.6949999928474426,0.7200000286102295,103702.0
2025-07-17,0.7400000095367432,0.7400000095367432,0.75,0.7400000095367432,0.75,49464.0
2025-07-18,0.7749999761581421,0.7749999761581421,0.7749999761581421,0.7400000095367432,0.7400000095367432,3399.0
2025-07-21,0.7799999713897705,0.7799999713897705,0.7900000214576721,0.7749999761581421,0.7900000214576721,27562.0
2025-07-22,0.7850000262260437,0.7850000262260437,0.7850000262260437,0.7850000262260437,0.7850000262260437,2000.0
2025-07-23,0.699999988079071,0.699999988079071,0.7400000095367432,0.699999988079071,0.7099999785423279,115416.0
2025-07-24,0.6899999976158142,0.6899999976158142,0.7200000286102295,0.6850000023841858,0.7200000286102295,29111.0
2025-07-25,0.7099999785423279,0.7099999785423279,0.7200000286102295,0.6899999976158142,0.6899999976158142,327.0
2025-07-28,0.6899999976158142,0.6899999976158142,0.7275000214576721,0.6800000071525574,0.7250000238418579,45577.0
2025-07-29,0.6700000166893005,0.6700000166893005,0.6899999976158142,0.6700000166893005,0.6899999976158142,6654.0
2025-07-30,0.6100000143051147,0.6100000143051147,0.6349999904632568,0.6050000190734863,0.6299999952316284,100942.0
2025-07-31,0.5600000023841858,0.5600000023841858,0.6299999952316284,0.5600000023841858,0.625,17825.0
2025-08-01,0.5400000214576721,0.5400000214576721,0.5600000023841858,0.5400000214576721,0.5600000023841858,36911.0
2025-08-04,0.6200000047683716,0.6200000047683716,0.6200000047683716,0.6200000047683716,0.6200000047683716,10000.0
2025-08-05,0.6349999904632568,0.6349999904632568,0.6349999904632568,0.6200000047683716,0.6200000047683716,3507.0
2025-08-06,0.6000000238418579,0.6000000238418579,0.6000000238418579,0.6000000238418579,0.6000000238418579,3544.0
2025-08-07,0.6299999952316284,0.6299999952316284,0.6299999952316284,0.6000000238418579,0.6200000047683716,13267.0
2025-08-08,0.6449999809265137,0.6449999809265137,0.6800000071525574,0.6100000143051147,0.6100000143051147,86830.0
2025-08-11,0.6499999761581421,0.6499999761581421,0.6800000071525574,0.6399999856948853,0.6650000214576721,109421.0
2025-08-12,0.699999988079071,0.699999988079071,0.7250000238418579,0.675000011920929,0.6800000071525574,155992.0
2025-08-13,0.699999988079071,0.699999988079071,0.7099999785423279,0.6949999928474426,0.7099999785423279,64623.0
2025-08-14,0.699999988079071,0.699999988079071,0.699999988079071,0.699999988079071,0.699999988079071,43625.0
2025-08-15,0.6800000071525574,0.6800000071525574,0.6800000071525574,0.6800000071525574,0.6800000071525574,3489.0
2025-08-18,0.699999988079071,0.699999988079071,0.7250000238418579,0.6899999976158142,0.6899999976158142,41989.0
2025-08-19,0.699999988079071,0.699999988079071,0.7200000286102295,0.699999988079071,0.7200000286102295,41488.0
2025-08-20,0.6899999976158142,0.6899999976158142,0.7200000286102295,0.6899999976158142,0.699999988079071,17586.0
2025-08-21,0.35499998927116394,0.35499998927116394,0.35499998927116394,0.32499998807907104,0.32499998807907104,25578.0
2025-08-22,0.4000000059604645,0.4000000059604645,0.4000000059604645,0.3700000047683716,0.3700000047683716,210651.0
2025-08-25,0.3700000047683716,0.3700000047683716,0.3799999952316284,0.36000001430511475,0.3799999952316284,36297.0
2025-08-26,0.4300000071525574,0.4300000071525574,0.4300000071525574,0.4000000059604645,0.4000000059604645,167660.0
2025-08-27,0.44999998807907104,0.44999998807907104,0.4699999988079071,0.4399999976158142,0.4399999976158142,100750.0
2025-08-28,0.4399999976158142,0.4399999976158142,0.44999998807907104,0.4399999976158142,0.44999998807907104,13906.0
2025-08-29,0.4399999976158142,0.4399999976158142,0.4399999976158142,0.4399999976158142,0.4399999976158142,2350.0
2025-09-01,0.4300000071525574,0.4300000071525574,0.4399999976158142,0.4300000071525574,0.4399999976158142,15190.0
2025-09-02,0.45500001311302185,0.45500001311302185,0.4699999988079071,0.44999998807907104,0.44999998807907104,200500.0
2025-09-03,0.5,0.5,0.5,0.46000000834465027,0.46000000834465027,139498.0
2025-09-04,0.46000000834465027,0.46000000834465027,0.5099999904632568,0.46000000834465027,0.5,96154.0
2025-09-05,0.49000000953674316,0.49000000953674316,0.550000011920929,0.49000000953674316,0.5,205081.0
2025-09-08,0.49000000953674316,0.49000000953674316,0.49000000953674316,0.46000000834465027,0.49000000953674316,16211.0
2025-09-09,0.49000000953674316,0.49000000953674316,0.49000000953674316,0.46000000834465027,0.49000000953674316,67904.0
2025-09-10,0.49000000953674316,0.49000000953674316,0.49000000953674316,0.44999998807907104,0.49000000953674316,12388.0
2025-09-11,0.41999998688697815,0.41999998688697815,0.47999998927116394,0.4099999964237213,0.47999998927116394,212589.0
2025-09-12,0.4124999940395355,0.4124999940395355,0.41999998688697815,0.4050000011920929,0.41999998688697815,164099.0
2025-09-15,0.41999998688697815,0.41999998688697815,0.41999998688697815,0.41499999165534973,0.41499999165534973,24630.0
2025-09-16,0.4050000011920929,0.4050000011920929,0.41999998688697815,0.38999998569488525,0.41999998688697815,157005.0
2025-09-17,0.45500001311302185,0.45500001311302185,0.46000000834465027,0.41499999165534973,0.41499999165534973,107754.0
2025-09-18,0.4350000023841858,0.4350000023841858,0.45500001311302185,0.41999998688697815,0.45500001311302185,159142.0
2025-09-19,0.42500001192092896,0.42500001192092896,0.4399999976158142,0.42500001192092896,0.4399999976158142,25894.0
2025-09-22,0.44999998807907104,0.44999998807907104,0.44999998807907104,0.41999998688697815,0.42500001192092896,39013.0
2025-09-23,0.41499999165534973,0.41499999165534973,0.42500001192092896,0.41499999165534973,0.42500001192092896,60109.0
2025-09-24,0.42500001192092896,0.42500001192092896,0.42500001192092896,0.41499999165534973,0.42500001192092896,12397.0
2025-09-25,0.4000000059604645,0.4000000059604645,0.42500001192092896,0.4000000059604645,0.42500001192092896,68073.0
2025-09-26,0.41499999165534973,0.41499999165534973,0.42500001192092896,0.4050000011920929,0.42500001192092896,14980.0
2025-09-29,0.41499999165534973,0.41499999165534973,0.4300000071525574,0.41499999165534973,0.4300000071525574,8918.0
2025-09-30,0.48500001430511475,0.48500001430511475,0.48500001430511475,0.41999998688697815,0.41999998688697815,93620.0
2025-10-01,0.48500001430511475,0.48500001430511475,0.48500001430511475,0.48500001430511475,0.48500001430511475,831.0
2025-10-02,0.4300000071525574,0.4300000071525574,0.4699999988079071,0.4300000071525574,0.4699999988079071,63895.0
2025-10-03,0.4399999976158142,0.4399999976158142,0.4399999976158142,0.42500001192092896,0.4399999976158142,16109.0
2025-10-06,0.5,0.5,0.5,0.44999998807907104,0.44999998807907104,64203.0
2025-10-07,0.5,0.5,0.5049999952316284,0.47999998927116394,0.5,240731.0
2025-10-08,0.5099999904632568,0.5099999904632568,0.5450000166893005,0.5,0.5049999952316284,209672.0
2025-10-09,0.5299999713897705,0.5299999713897705,0.550000011920929,0.5149999856948853,0.5149999856948853,174071.0
2025-10-10,0.6000000238418579,0.6000000238418579,0.6200000047683716,0.5600000023841858,0.5600000023841858,229963.0
2025-10-13,0.699999988079071,0.699999988079071,0.7400000095367432,0.6299999952316284,0.6299999952316284,457550.0
2025-10-14,0.7200000286102295,0.7200000286102295,0.7900000214576721,0.7174999713897705,0.7400000095367432,884776.0
2025-10-15,0.699999988079071,0.699999988079071,0.7200000286102295,0.6600000262260437,0.7200000286102295,900966.0
2025-10-16,0.6399999856948853,0.6399999856948853,0.6899999976158142,0.6200000047683716,0.6700000166893005,207153.0
2025-10-17,0.6449999809265137,0.6449999809265137,0.6600000262260437,0.6200000047683716,0.6600000262260437,71405.0
2025-10-20,0.699999988079071,0.699999988079071,0.7200000286102295,0.6600000262260437,0.6600000262260437,781124.0
2025-10-21,0.8600000143051147,0.8600000143051147,0.8949999809265137,0.7149999737739563,0.7149999737739563,1061893.0
2025-10-22,1.0750000476837158,1.0750000476837158,1.100000023841858,0.8949999809265137,0.8999999761581421,1741968.0
2025-10-23,1.0800000429153442,1.0800000429153442,1.340000033378601,0.9300000071525574,1.1950000524520874,2391671.0
2025-10-24,0.9150000214576721,0.9150000214576721,1.1349999904632568,0.9100000262260437,1.1200000047683716,839027.0
2025-10-27,0.8149999976158142,0.8149999976158142,0.9700000286102295,0.8100000023841858,0.9399999976158142,814162.0
2025-10-28,0.6899999976158142,0.6899999976158142,0.8349999785423279,0.6700000166893005,0.8299999833106995,741554.0
2025-10-29,0.7099999785423279,0.7099999785423279,0.7699999809265137,0.699999988079071,0.7200000286102295,406144.0
2025-10-30,0.7599999904632568,0.7599999904632568,0.8650000095367432,0.7350000143051147,0.7400000095367432,316598.0
2025-10-31,0.8050000071525574,0.8050000071525574,0.8500000238418579,0.800000011920929,0.8199999928474426,282276.0
2025-11-03,0.7599999904632568,0.7599999904632568,0.8299999833106995,0.7549999952316284,0.8299999833106995,204699.0
2025-11-04,0.7900000214576721,0.7900000214576721,0.8349999785423279,0.7749999761581421,0.800000011920929,74622.0
2025-11-05,0.8100000023841858,0.8100000023841858,0.8500000238418579,0.7599999904632568,0.8100000023841858,172599.0
2025-11-06,0.8199999928474426,0.8199999928474426,0.862500011920929,0.800000011920929,0.824999988079071,196871.0
2025-11-07,0.800000011920929,0.800000011920929,0.875,0.7699999809265137,0.8600000143051147,328815.0
2025-11-10,0.699999988079071,0.699999988079071,0.8349999785423279,0.699999988079071,0.800000011920929,538643.0
2025-11-11,0.7300000190734863,0.7300000190734863,0.7300000190734863,0.699999988079071,0.7099999785423279,117219.0
2025-11-12,0.75,0.75,0.75,0.7300000190734863,0.7350000143051147,40396.0
2025-11-13,0.7450000047683716,0.7450000047683716,0.7549999952316284,0.7099999785423279,0.75,140046.0
2025-11-14,0.699999988079071,0.699999988079071,0.7250000238418579,0.6949999928474426,0.7200000286102295,228225.0
2025-11-17,0.8550000190734863,0.8550000190734863,0.8550000190734863,0.7049999833106995,0.7300000190734863,1212945.0
2025-11-18,0.7850000262260437,0.7850000262260437,0.8700000047683716,0.7799999713897705,0.8600000143051147,314143.0
2025-11-19,0.8500000238418579,0.8500000238418579,0.9150000214576721,0.7900000214576721,0.7900000214576721,404114.0
2025-11-20,0.800000011920929,0.800000011920929,0.8999999761581421,0.7950000166893005,0.8999999761581421,327129.0
2025-11-21,0.7799999713897705,0.7799999713897705,0.8299999833106995,0.7649999856948853,0.7950000166893005,381660.0
2025-11-24,0.7799999713897705,0.7799999713897705,0.800000011920929,0.7799999713897705,0.7850000262260437,132239.0
2025-11-25,0.8199999928474426,0.8199999928474426,0.8199999928474426,0.7799999713897705,0.800000011920929,62217.0
2025-11-26,0.8100000023841858,0.8100000023841858,0.8500000238418579,0.7799999713897705,0.8299999833106995,292156.0
2025-11-27,0.800000011920929,0.800000011920929,0.8399999737739563,0.7900000214576721,0.8399999737739563,161430.0
2025-11-28,0.8149999976158142,0.8149999976158142,0.8600000143051147,0.800000011920929,0.800000011920929,233691.0
2025-12-01,0.7649999856948853,0.7649999856948853,0.8399999737739563,0.7649999856948853,0.8399999737739563,336015.0
2025-12-02,0.7699999809265137,0.7699999809265137,0.7950000166893005,0.7699999809265137,0.7699999809265137,80286.0
2025-12-03,0.7699999809265137,0.7699999809265137,0.7799999713897705,0.7599999904632568,0.7799999713897705,60291.0
2025-12-04,0.75,0.75,0.7799999713897705,0.75,0.7649999856948853,82037.0
2025-12-05,0.7450000047683716,0.7450000047683716,0.7524999976158142,0.7400000095367432,0.75,41126.0
2025-12-08,0.7149999737739563,0.7149999737739563,0.7450000047683716,0.7049999833106995,0.7450000047683716,146308.0
2025-12-09,0.7149999737739563,0.7149999737739563,0.7200000286102295,0.699999988079071,0.7200000286102295,58463.0
2025-12-10,0.7099999785423279,0.7099999785423279,0.7200000286102295,0.699999988079071,0.7200000286102295,39797.0
2025-12-11,0.7200000286102295,0.7200000286102295,0.7574999928474426,0.7049999833106995,0.7099999785423279,204932.0
2025-12-12,0.7450000047683716,0.7450000047683716,0.7450000047683716,0.7200000286102295,0.7300000190734863,166161.0
2025-12-15,0.7099999785423279,0.7099999785423279,0.7450000047683716,0.699999988079071,0.7400000095367432,137578.0
2025-12-16,0.7049999833106995,0.7049999833106995,0.7250000238418579,0.6949999928474426,0.7250000238418579,58264.0
2025-12-17,0.7099999785423279,0.7099999785423279,0.7149999737739563,0.6949999928474426,0.7049999833106995,41902.0
2025-12-18,0.699999988079071,0.699999988079071,0.7099999785423279,0.6949999928474426,0.7099999785423279,10724.0
2025-12-19,0.6549999713897705,0.6549999713897705,0.6949999928474426,0.6549999713897705,0.6949999928474426,131329.0
2025-12-22,0.6650000214576721,0.6650000214576721,0.675000011920929,0.6549999713897705,0.6700000166893005,92920.0
2025-12-23,0.6600000262260437,0.6600000262260437,0.6700000166893005,0.6600000262260437,0.6600000262260437,15388.0
2025-12-24,0.6650000214576721,0.6650000214576721,0.6700000166893005,0.6499999761581421,0.6700000166893005,49015.0
2025-12-29,0.675000011920929,0.675000011920929,0.675000011920929,0.6549999713897705,0.6650000214576721,19761.0
2025-12-30,0.6800000071525574,0.6800000071525574,0.6800000071525574,0.6700000166893005,0.6800000071525574,109290.0
2025-12-31,0.699999988079071,0.699999988079071,0.7049999833106995,0.6800000071525574,0.6800000071525574,235707.0
2026-01-02,0.6899999976158142,0.6899999976158142,0.7200000286102295,0.6899999976158142,0.7200000286102295,62753.0
2026-01-05,0.6949999928474426,0.6949999928474426,0.7149999737739563,0.6899999976158142,0.6949999928474426,83867.0
2026-01-06,0.699999988079071,0.699999988079071,0.7200000286102295,0.699999988079071,0.7099999785423279,70876.0
2026-01-07,0.7350000143051147,0.7350000143051147,0.7450000047683716,0.699999988079071,0.699999988079071,132191.0
2026-01-08,0.7350000143051147,0.7350000143051147,0.75,0.7250000238418579,0.7450000047683716,60852.0
2026-01-09,0.7200000286102295,0.7200000286102295,0.7400000095367432,0.7200000286102295,0.7300000190734863,36410.0
2026-01-12,0.7200000286102295,0.7200000286102295,0.7450000047683716,0.6899999976158142,0.7400000095367432,185027.0
2026-01-13,0.7400000095367432,0.7400000095367432,0.7400000095367432,0.7099999785423279,0.7200000286102295,121679.0
2026-01-14,0.7350000143051147,0.7350000143051147,0.7350000143051147,0.699999988079071,0.7250000238418579,80927.0
2026-01-15,0.8199999928474426,0.8199999928474426,0.8500000238418579,0.7300000190734863,0.7300000190734863,600713.0
2026-01-16,0.7950000166893005,0.7950000166893005,0.8450000286102295,0.7850000262260437,0.8349999785423279,139904.0
2026-01-19,0.8299999833106995,0.8299999833106995,0.8600000143051147,0.7850000262260437,0.7850000262260437,140560.0
2026-01-20,0.7900000214576721,0.7900000214576721,0.8450000286102295,0.7799999713897705,0.8299999833106995,117254.0
2026-01-21,0.7850000262260437,0.7850000262260437,0.8199999928474426,0.7799999713897705,0.7900000214576721,133690.0
2026-01-22,0.7799999713897705,0.7799999713897705,0.800000011920929,0.7699999809265137,0.800000011920929,102191.0
2026-01-23,0.7900000214576721,0.7900000214576721,0.800000011920929,0.7699999809265137,0.7799999713897705,480839.0
2026-01-27,0.7599999904632568,0.7599999904632568,0.800000011920929,0.7599999904632568,0.800000011920929,221369.0
2026-01-28,0.7549999952316284,0.7549999952316284,0.7799999713897705,0.7400000095367432,0.7799999713897705,82609.0
2026-01-29,0.7049999833106995,0.7049999833106995,0.7549999952316284,0.6899999976158142,0.7549999952316284,201856.0
2026-01-30,0.699999988079071,0.699999988079071,0.699999988079071,0.6399999856948853,0.6899999976158142,300711.0
2026-02-02,0.6700000166893005,0.6700000166893005,0.6899999976158142,0.6499999761581421,0.6899999976158142,117264.0
2026-02-03,0.699999988079071,0.699999988079071,0.699999988079071,0.6650000214576721,0.6700000166893005,148048.0
2026-02-04,0.7300000190734863,0.7300000190734863,0.7549999952316284,0.6949999928474426,0.699999988079071,188616.0
2026-02-05,0.699999988079071,0.699999988079071,0.75,0.6800000071525574,0.75,168211.0
2026-02-06,0.6600000262260437,0.6600000262260437,0.699999988079071,0.6449999809265137,0.699999988079071,169750.0
2026-02-09,0.6349999904632568,0.6349999904632568,0.6899999976158142,0.6200000047683716,0.6899999976158142,64238.0
2026-02-10,0.6549999713897705,0.6549999713897705,0.6700000166893005,0.6549999713897705,0.6549999713897705,19225.0
2026-02-11,0.6650000214576721,0.6650000214576721,0.6700000166893005,0.6549999713897705,0.6700000166893005,54779.0
2026-02-12,0.6949999928474426,0.6949999928474426,0.699999988079071,0.6650000214576721,0.6700000166893005,160495.0
2026-02-13,0.675000011920929,0.675000011920929,0.699999988079071,0.675000011920929,0.699999988079071,30121.0
2026-02-16,0.6499999761581421,0.6499999761581421,0.6800000071525574,0.6499999761581421,0.6800000071525574,65910.0
2026-02-17,0.6700000166893005,0.6700000166893005,0.6899999976158142,0.6700000166893005,0.6800000071525574,29471.0
2026-02-18,0.625,0.625,0.675000011920929,0.5799999833106995,0.675000011920929,91397.0
2026-02-19,0.6549999713897705,0.6549999713897705,0.6650000214576721,0.6299999952316284,0.6299999952316284,25407.0
2026-02-20,0.6399999856948853,0.6399999856948853,0.675000011920929,0.6299999952316284,0.6449999809265137,71362.0
2026-02-23,0.6600000262260437,0.6600000262260437,0.675000011920929,0.6499999761581421,0.6499999761581421,13545.0
2026-02-24,0.6399999856948853,0.6399999856948853,0.6549999713897705,0.6399999856948853,0.6499999761581421,50440.0
2026-02-25,0.6449999809265137,0.6449999809265137,0.6650000214576721,0.6449999809265137,0.6650000214576721,9231.0
2026-02-26,0.6100000143051147,0.6100000143051147,0.6700000166893005,0.6000000238418579,0.6650000214576721,115908.0
2026-02-27,0.6200000047683716,0.6200000047683716,0.6449999809265137,0.6200000047683716,0.6449999809265137,34521.0
2026-03-02,0.6499999761581421,0.6499999761581421,0.6949999928474426,0.625,0.625,94321.0
2026-03-03,0.6700000166893005,0.6700000166893005,0.6949999928474426,0.6600000262260437,0.6899999976158142,75013.0
2026-03-04,0.6650000214576721,0.6650000214576721,0.6800000071525574,0.6650000214576721,0.6700000166893005,20034.0
2026-03-05,0.6800000071525574,0.6800000071525574,0.6850000023841858,0.6600000262260437,0.6600000262260437,25215.0
2026-03-06,0.6875,0.6875,0.6949999928474426,0.6800000071525574,0.6800000071525574,32974.0
2026-03-09,0.6299999952316284,0.6299999952316284,0.6700000166893005,0.6299999952316284,0.6700000166893005,88111.0
2026-03-10,0.6650000214576721,0.6650000214576721,0.699999988079071,0.6600000262260437,0.6600000262260437,62100.0
2026-03-11,0.6800000071525574,0.6800000071525574,0.6850000023841858,0.6349999904632568,0.6850000023841858,111542.0
2026-03-12,0.6549999713897705,0.6549999713897705,0.6800000071525574,0.6549999713897705,0.6800000071525574,2120.0
2026-03-13,0.7099999785423279,0.7099999785423279,0.7300000190734863,0.6700000166893005,0.6825000047683716,192069.0
2026-03-16,0.699999988079071,0.699999988079071,0.7300000190734863,0.699999988079071,0.699999988079071,43923.0
2026-03-17,0.6850000023841858,0.6850000023841858,0.7049999833106995,0.6700000166893005,0.7049999833106995,87986.0
2026-03-18,0.6899999976158142,0.6899999976158142,0.7049999833106995,0.6899999976158142,0.699999988079071,17458.0
2026-03-19,0.6549999713897705,0.6549999713897705,0.6899999976158142,0.6399999856948853,0.6899999976158142,50750.0
2026-03-20,0.6949999928474426,0.6949999928474426,0.6949999928474426,0.6600000262260437,0.6700000166893005,18293.0
2026-03-23,0.6299999952316284,0.6299999952316284,0.675000011920929,0.6000000238418579,0.675000011920929,129680.0
2026-03-24,0.6399999856948853,0.6399999856948853,0.6399999856948853,0.6349999904632568,0.6349999904632568,9293.0
2026-03-25,0.6299999952316284,0.6299999952316284,0.6600000262260437,0.6299999952316284,0.6399999856948853,71400.0
2026-03-26,0.6399999856948853,0.6399999856948853,0.6549999713897705,0.6399999856948853,0.6399999856948853,52277.0
2026-03-27,0.625,0.625,0.6399999856948853,0.625,0.6399999856948853,65494.0
2026-03-30,0.625,0.625,0.6399999856948853,0.6200000047683716,0.6399999856948853,9374.0
2026-03-31,0.6200000047683716,0.6200000047683716,0.6600000262260437,0.6200000047683716,0.6499999761581421,78573.0
2026-04-01,0.6399999856948853,0.6399999856948853,0.6800000071525574,0.6200000047683716,0.6200000047683716,85408.0
2026-04-02,0.6200000047683716,0.6200000047683716,0.6399999856948853,0.6100000143051147,0.6399999856948853,47310.0
2026-04-07,0.6150000095367432,0.6150000095367432,0.6424999833106995,0.6150000095367432,0.6200000047683716,67474.0
2026-04-08,0.6399999856948853,0.6399999856948853,0.6600000262260437,0.6150000095367432,0.6150000095367432,79343.0
2026-04-09,0.6449999809265137,0.6449999809265137,0.6499999761581421,0.6399999856948853,0.6399999856948853,62025.0
2026-04-10,0.6200000047683716,0.6200000047683716,0.6399999856948853,0.6100000143051147,0.6399999856948853,191760.0
2026-04-13,0.6349999904632568,0.6349999904632568,0.6399999856948853,0.6200000047683716,0.6399999856948853,32356.0
2026-04-14,0.6399999856948853,0.6399999856948853,0.6499999761581421,0.6349999904632568,0.6349999904632568,116260.0
2026-04-15,0.6399999856948853,0.6399999856948853,0.6399999856948853,0.625,0.6299999952316284,54431.0
2026-04-16,0.625,0.625,0.6349999904632568,0.625,0.6299999952316284,10027.0
2026-04-17,0.6200000047683716,0.6200000047683716,0.6349999904632568,0.6200000047683716,0.625,30532.0
2026-04-20,0.6200000047683716,0.6200000047683716,0.6399999856948853,0.6200000047683716,0.625,52208.0
2026-04-21,0.6349999904632568,0.6349999904632568,0.637499988079071,0.625,0.6349999904632568,9009.0
2026-04-22,0.6200000047683716,0.6200000047683716,0.6399999856948853,0.6200000047683716,0.6349999904632568,25836.0
2026-04-23,0.6349999904632568,0.6349999904632568,0.6349999904632568,0.6000000238418579,0.6200000047683716,164228.0
2026-04-24,0.6100000143051147,0.6100000143051147,0.6200000047683716,0.6050000190734863,0.6050000190734863,16521.0
2026-04-27,0.5799999833106995,0.5799999833106995,0.6100000143051147,0.5799999833106995,0.6100000143051147,97486.0
2026-04-28,0.5899999737739563,0.5899999737739563,0.6000000238418579,0.5799999833106995,0.5799999833106995,11201.0
2026-04-29,0.5899999737739563,0.5899999737739563,0.5899999737739563,0.5899999737739563,0.5899999737739563,977.0
2026-04-30,0.5899999737739563,0.5899999737739563,0.6000000238418579,0.5674999952316284,0.5899999737739563,101803.0
2026-05-01,0.5799999833106995,0.5799999833106995,0.5899999737739563,0.5600000023841858,0.5799999833106995,52151.0
2026-05-04,0.5649999976158142,0.5649999976158142,0.574999988079071,0.5649999976158142,0.5699999928474426,19727.0
2026-05-05,0.5649999976158142,0.5649999976158142,0.5649999976158142,0.5049999952316284,0.5600000023841858,120451.0
2026-05-06,0.5600000023841858,0.5600000023841858,0.574999988079071,0.5450000166893005,0.5600000023841858,15401.0
2026-05-07,0.5299999713897705,0.5299999713897705,0.5600000023841858,0.5099999904632568,0.5600000023841858,100184.0
2026-05-08,0.5550000071525574,0.5550000071525574,0.5550000071525574,0.5,0.5350000262260437,110392.0
2026-05-11,0.5099999904632568,0.5099999904632568,0.5400000214576721,0.5099999904632568,0.5400000214576721,22050.0
2026-05-12,0.5,0.5,0.5099999904632568,0.4699999988079071,0.5099999904632568,185999.0
2026-05-13,0.5199999809265137,0.5199999809265137,0.5199999809265137,0.44999998807907104,0.5,294752.0
2026-05-14,0.5799999833106995,0.5799999833106995,0.5950000286102295,0.5299999713897705,0.5299999713897705,40397.0
2026-05-15,0.5400000214576721,0.5400000214576721,0.5849999785423279,0.5149999856948853,0.5849999785423279,21977.0
2026-05-18,0.5400000214576721,0.5400000214576721,0.5400000214576721,0.5099999904632568,0.5199999809265137,24821.0
2026-05-19,0.5899999737739563,0.5899999737739563,0.6200000047683716,0.5450000166893005,0.5450000166893005,142623.0
2026-05-20,0.5899999737739563,0.5899999737739563,0.5950000286102295,0.574999988079071,0.5899999737739563,38619.0
2026-05-21,0.6000000238418579,0.6000000238418579,0.6100000143051147,0.550000011920929,0.5899999737739563,105382.0
2026-05-22,0.6050000190734863,0.6050000190734863,0.6050000190734863,0.6000000238418579,0.6000000238418579,18779.0
2026-05-25,0.5799999833106995,0.5799999833106995,0.6100000143051147,0.5799999833106995,0.6100000143051147,23149.0
2026-05-26,0.5600000023841858,0.5600000023841858,0.5950000286102295,0.5249999761581421,0.550000011920929,83073.0
2026-05-27,0.5350000262260437,0.5350000262260437,0.574999988079071,0.5199999809265137,0.5400000214576721,88608.0
2026-05-28,0.5450000166893005,0.5450000166893005,0.5550000071525574,0.5350000262260437,0.5400000214576721,5525.0
2026-05-29,0.5575000047683716,0.5575000047683716,0.5874999761581421,0.5450000166893005,0.5450000166893005,45280.0
2026-06-01,0.5600000023841858,0.5600000023841858,0.5799999833106995,0.5450000166893005,0.550000011920929,41584.0
2026-06-02,0.550000011920929,0.550000011920929,0.5600000023841858,0.5450000166893005,0.5600000023841858,20559.0
2026-06-03,0.5350000262260437,0.5350000262260437,0.550000011920929,0.5350000262260437,0.5450000166893005,76062.0
2026-06-04,0.5450000166893005,0.5450000166893005,0.5450000166893005,0.5350000262260437,0.5350000262260437,1518.0
2026-06-05,0.550000011920929,0.550000011920929,0.550000011920929,0.5350000262260437,0.5400000214576721,36455.0
2026-06-09,0.5400000214576721,0.5400000214576721,0.5649999976158142,0.5350000262260437,0.5649999976158142,61826.0
2026-06-10,0.5400000214576721,0.5400000214576721,0.5450000166893005,0.5350000262260437,0.5400000214576721,47259.0
2026-06-11,0.5450000166893005,0.5450000166893005,0.5450000166893005,0.5299999713897705,0.5400000214576721,37113.0
2026-06-12,0.5550000071525574,0.5550000071525574,0.5649999976158142,0.5450000166893005,0.5649999976158142,21427.0
2026-06-15,0.5899999737739563,0.5899999737739563,0.5899999737739563,0.5550000071525574,0.5550000071525574,48625.0
2026-06-16,0.5600000023841858,0.5600000023841858,0.5899999737739563,0.550000011920929,0.5899999737739563,86596.0
2026-06-17,0.5400000214576721,0.5400000214576721,0.574999988079071,0.5400000214576721,0.5699999928474426,104762.0
2026-06-18,0.5350000262260437,0.5350000262260437,0.5450000166893005,0.5350000262260437,0.5450000166893005,79865.0
2026-06-19,0.5550000071525574,0.5550000071525574,0.5550000071525574,0.5375000238418579,0.5400000214576721,310990.0
2026-06-22,0.5550000071525574,0.5550000071525574,0.5600000023841858,0.5400000214576721,0.5600000023841858,129659.0
2026-06-23,0.5600000023841858,0.5600000023841858,0.5799999833106995,0.5550000071525574,0.5550000071525574,152798.0
2026-06-24,0.5799999833106995,0.5799999833106995,0.5799999833106995,0.5600000023841858,0.5600000023841858,157237.0
2026-06-25,0.5799999833106995,0.5799999833106995,0.6200000047683716,0.5799999833106995,0.6050000190734863,290230.0
2026-06-26,0.5899999737739563,0.5899999737739563,0.6100000143051147,0.5649999976158142,0.5899999737739563,94586.0
2026-06-29,0.5649999976158142,0.5649999976158142,0.5899999737739563,0.5649999976158142,0.5899999737739563,66949.0
2026-06-30,0.5550000071525574,0.5550000071525574,0.5699999928474426,0.550000011920929,0.5699999928474426,90487.0
2026-07-01,0.5400000214576721,0.5400000214576721,0.5550000071525574,0.5400000214576721,0.550000011920929,86598.0
2026-07-02,0.550000011920929,0.550000011920929,0.550000011920929,0.5400000214576721,0.5450000166893005,7305.0
2026-07-03,0.5849999785423279,0.5849999785423279,0.6100000143051147,0.5450000166893005,0.5450000166893005,72654.0
2026-07-06,0.6000000238418579,0.6000000238418579,0.6449999809265137,0.6000000238418579,0.6050000190734863,79806.0
2026-07-07,0.6150000095367432,0.6150000095367432,0.6150000095367432,0.6050000190734863,0.6050000190734863,3484.0
2026-07-08,0.6299999952316284,0.6299999952316284,0.6399999856948853,0.6150000095367432,0.6200000047683716,20624.0
2026-07-09,0.6100000143051147,0.6100000143051147,0.6299999952316284,0.6100000143051147,0.6299999952316284,27445.0
2026-07-10,0.6000000238418579,0.6000000238418579,0.6449999809265137,0.6000000238418579,0.6200000047683716,152367.0
2026-07-13,0.6200000047683716,0.6200000047683716,0.625,0.6200000047683716,0.6200000047683716,3708.0
2026-07-14,0.6000000238418579,0.6000000238418579,0.6399999856948853,0.6000000238418579,0.6349999904632568,11355.0
2026-07-15,0.6050000190734863,0.6050000190734863,0.6050000190734863,0.6050000190734863,0.6050000190734863,1275.0
2026-07-16,0.6299999952316284,0.6299999952316284,0.6299999952316284,0.6200000047683716,0.6200000047683716,6244.0
2026-07-17,0.625,0.625,0.6349999904632568,0.625,0.6349999904632568,12778.0
2026-07-20,0.5799999833106995,0.5799999833106995,0.625,0.5799999833106995,0.625,113700.0
2026-07-21,0.5799999833106995,0.5799999833106995,0.5899999737739563,0.5799999833106995,0.5899999737739563,5702.0
2026-07-22,0.6000000238418579,0.6000000238418579,0.6000000238418579,0.5699999928474426,0.5799999833106995,87235.0
2026-07-23,0.5899999737739563,0.5899999737739563,0.6000000238418579,0.5899999737739563,0.6000000238418579,20069.0
2026-07-24,0.5649999976158142,0.5649999976158142,0.5699999928474426,0.5600000023841858,0.5699999928474426,32589.0
2026-07-27,0.5550000071525574,0.5550000071525574,0.574999988079071,0.5550000071525574,0.5699999928474426,58030.0
2026-07-28,0.5600000023841858,0.5600000023841858,0.5649999976158142,0.5550000071525574,0.5550000071525574,4821.0
2026-07-29,0.5550000071525574,0.5550000071525574,0.5600000023841858,0.550000011920929,0.5600000023841858,17919.0
2026-07-30,0.5649999976158142,0.5649999976158142,0.5649999976158142,0.5649999976158142,0.5649999976158142,375.0
2026-07-31,0.5400000214576721,0.5400000214576721,0.5600000023841858,0.5400000214576721,0.5600000023841858,171919.0
2026-08-03,0.5400000214576721,0.5400000214576721,0.5600000023841858,0.5400000214576721,0.5600000023841858,7850.0
2026-08-04,0.5400000214576721,0.5400000214576721,0.5600000023841858,0.5249999761581421,0.550000011920929,47127.0
2026-08-05,0.5299999713897705,0.5299999713897705,0.550000011920929,0.5299999713897705,0.5400000214576721,53118.0
2026-08-06,0.5149999856948853,0.5149999856948853,0.5299999713897705,0.5099999904632568,0.5299999713897705,62193.0
2026-08-07,0.49000000953674316,0.49000000953674316,0.5199999809265137,0.48500001430511475,0.5099999904632568,134642.0
2026-08-10,0.47999998927116394,0.47999998927116394,0.4950000047683716,0.46000000834465027,0.49000000953674316,99731.0
2026-08-11,0.41999998688697815,0.41999998688697815,0.49000000953674316,0.3799999952316284,0.47999998927116394,252350.0
2026-08-12,0.48500001430511475,0.48500001430511475,0.5049999952316284,0.4449999928474426,0.4449999928474426,77818.0
2026-08-13,0.45500001311302185,0.45500001311302185,0.47999998927116394,0.45500001311302185,0.4699999988079071,62563.0
2026-08-14,0.4699999988079071,0.4699999988079071,0.48500001430511475,0.4650000035762787,0.47999998927116394,65236.0
2026-08-17,0.49000000953674316,0.49000000953674316,0.4950000047683716,0.47999998927116394,0.47999998927116394,81929.0
2026-08-18,0.5400000214576721,0.5400000214576721,0.5400000214576721,0.49000000953674316,0.5049999952316284,33932.0
2026-08-19,0.5049999952316284,0.5049999952316284,0.5550000071525574,0.5049999952316284,0.5400000214576721,32733.0
2026-08-20,0.5049999952316284,0.5049999952316284,0.5049999952316284,0.5049999952316284,0.5049999952316284,856.0
2026-08-21,0.5099999904632568,0.5099999904632568,0.5099999904632568,0.5,0.5,6536.0
2026-08-24,0.49000000953674316,0.49000000953674316,0.5550000071525574,0.49000000953674316,0.5550000071525574,30036.0
2026-08-25,0.5550000071525574,0.5550000071525574,0.5550000071525574,0.49000000953674316,0.5,4856.0
2026-08-26,0.5450000166893005,0.5450000166893005,0.5849999785423279,0.5299999713897705,0.5550000071525574,153079.0
2026-08-27,0.550000011920929,0.550000011920929,0.5699999928474426,0.5350000262260437,0.5600000023841858,97332.0
2026-08-28,0.5299999713897705,0.5299999713897705,0.5550000071525574,0.5199999809265137,0.5550000071525574,95085.0
2026-08-31,0.5,0.5,0.550000011920929,0.49000000953674316,0.550000011920929,106132.0
2026-09-01,0.5,0.5,0.5,0.5,0.5,0.0
2026-09-02,0.5450000166893005,0.5450000166893005,0.550000011920929,0.5299999713897705,0.5350000262260437,69728.0
2026-09-03,0.5600000023841858,0.5600000023841858,0.5799999833106995,0.5600000023841858,0.5649999976158142,125161.0
2026-09-04,0.5600000023841858,0.5600000023841858,0.5600000023841858,0.5550000071525574,0.5600000023841858,56097.0
2026-09-07,0.5400000214576721,0.5400000214576721,0.5550000071525574,0.5400000214576721,0.5450000166893005,68350.0
