Date,Adj Close,Close,High,Low,Open,Volume
2025-01-01,18.18000030517578,18.18000030517578,18.790000915527344,18.110000610351562,18.200000762939453,79880.0
2025-01-02,18.520000457763672,18.520000457763672,18.68000030517578,18.18000030517578,18.479999542236328,22543.0
2025-01-03,18.299999237060547,18.299999237060547,18.989999771118164,18.170000076293945,18.440000534057617,37626.0
2025-01-06,17.440000534057617,17.440000534057617,18.389999389648438,17.3799991607666,18.170000076293945,42507.0
2025-01-07,18.010000228881836,18.010000228881836,18.149999618530273,17.56999969482422,17.56999969482422,36407.0
2025-01-08,18.010000228881836,18.010000228881836,18.299999237060547,18.0,18.299999237060547,28787.0
2025-01-09,18.059999465942383,18.059999465942383,18.540000915527344,17.5,18.030000686645508,40184.0
2025-01-10,17.200000762939453,17.200000762939453,18.489999771118164,17.0,18.489999771118164,68615.0
2025-01-13,16.889999389648438,16.889999389648438,17.600000381469727,16.25,17.0,145736.0
2025-01-14,17.010000228881836,17.010000228881836,17.280000686645508,16.709999084472656,17.079999923706055,37281.0
2025-01-15,17.100000381469727,17.100000381469727,17.3799991607666,16.780000686645508,16.780000686645508,50716.0
2025-01-16,17.190000534057617,17.190000534057617,17.389999389648438,17.0,17.389999389648438,28612.0
2025-01-17,16.8799991607666,16.8799991607666,17.450000762939453,16.5,17.010000228881836,53823.0
2025-01-20,17.059999465942383,17.059999465942383,17.190000534057617,16.889999389648438,17.190000534057617,18396.0
2025-01-21,16.510000228881836,16.510000228881836,17.190000534057617,16.479999542236328,17.059999465942383,43094.0
2025-01-22,16.59000015258789,16.59000015258789,16.8700008392334,16.25,16.520000457763672,17317.0
2025-01-23,16.559999465942383,16.559999465942383,17.5,16.299999237060547,16.549999237060547,99971.0
2025-01-24,15.140000343322754,15.140000343322754,16.860000610351562,14.600000381469727,16.860000610351562,183985.0
2025-01-27,14.539999961853027,14.539999961853027,15.140000343322754,14.5,15.140000343322754,430577.0
2025-01-28,15.390000343322754,15.390000343322754,15.949999809265137,14.5,14.800000190734863,97490.0
2025-01-29,16.079999923706055,16.079999923706055,16.399999618530273,15.460000038146973,15.649999618530273,88820.0
2025-01-30,17.829999923706055,17.829999923706055,18.200000762939453,16.0,16.0,197686.0
2025-01-31,19.479999542236328,19.479999542236328,20.049999237060547,17.850000381469727,18.25,491499.0
2025-02-01,20.06999969482422,20.06999969482422,21.200000762939453,18.530000686645508,19.489999771118164,259985.0
2025-02-03,19.6200008392334,19.6200008392334,20.059999465942383,19.5,20.059999465942383,68335.0
2025-02-04,19.899999618530273,19.899999618530273,20.25,19.5,19.979999542236328,50915.0
2025-02-05,19.239999771118164,19.239999771118164,20.0,19.0,20.0,45610.0
2025-02-06,20.43000030517578,20.43000030517578,20.799999237060547,18.5,19.649999618530273,263486.0
2025-02-07,19.5,19.5,20.389999389648438,19.110000610351562,20.0,102317.0
2025-02-10,19.350000381469727,19.350000381469727,20.0,19.0,20.0,47454.0
2025-02-11,20.280000686645508,20.280000686645508,20.600000381469727,19.0,19.969999313354492,297837.0
2025-02-12,22.219999313354492,22.219999313354492,22.690000534057617,20.360000610351562,20.479999542236328,1727835.0
2025-02-13,22.610000610351562,22.610000610351562,23.5,21.200000762939453,22.18000030517578,603448.0
2025-02-14,22.43000030517578,22.43000030517578,23.399999618530273,21.920000076293945,23.399999618530273,244385.0
2025-02-17,22.520000457763672,22.520000457763672,23.25,22.0,22.950000762939453,221842.0
2025-02-18,22.950000762939453,22.950000762939453,23.489999771118164,22.0,23.489999771118164,308089.0
2025-02-19,25.260000228881836,25.260000228881836,27.0,23.010000228881836,23.290000915527344,874064.0
2025-02-20,27.1299991607666,27.1299991607666,29.0,25.06999969482422,25.5,1263696.0
2025-02-21,30.219999313354492,30.219999313354492,31.200000762939453,27.5,27.799999237060547,1149173.0
2025-02-24,36.2599983215332,36.2599983215332,36.2599983215332,31.299999237060547,32.0,5656998.0
2025-02-25,34.439998626708984,34.439998626708984,36.0,34.439998626708984,35.0,219078.0
2025-02-27,32.709999084472656,32.709999084472656,32.709999084472656,32.709999084472656,32.709999084472656,7447.0
2025-02-28,31.06999969482422,31.06999969482422,31.06999969482422,31.06999969482422,31.06999969482422,9825.0
2025-03-03,29.510000228881836,29.510000228881836,29.510000228881836,29.510000228881836,29.510000228881836,89287.0
2025-03-04,28.030000686645508,28.030000686645508,28.079999923706055,28.030000686645508,28.079999923706055,8686.0
2025-03-05,26.6200008392334,26.6200008392334,26.6200008392334,26.6200008392334,26.6200008392334,49996.0
2025-03-06,25.280000686645508,25.280000686645508,25.280000686645508,25.280000686645508,25.280000686645508,8457.0
2025-03-07,26.540000915527344,26.540000915527344,26.540000915527344,24.010000228881836,24.010000228881836,356098.0
2025-03-10,25.209999084472656,25.209999084472656,27.799999237060547,25.209999084472656,27.600000381469727,165006.0
2025-03-11,23.940000534057617,23.940000534057617,23.950000762939453,23.940000534057617,23.950000762939453,213297.0
2025-03-12,23.809999465942383,23.809999465942383,24.100000381469727,22.739999771118164,22.739999771118164,371268.0
2025-03-13,25.0,25.0,25.0,22.610000610351562,23.0,340195.0
2025-03-17,23.75,23.75,24.5,23.75,24.049999237060547,78720.0
2025-03-18,23.75,23.75,23.75,23.75,23.75,0.0
2025-03-19,25.459999084472656,25.459999084472656,25.459999084472656,24.260000228881836,25.450000762939453,63768.0
2025-03-20,26.729999542236328,26.729999542236328,26.729999542236328,26.5,26.639999389648438,20941.0
2025-03-21,28.059999465942383,28.059999465942383,28.059999465942383,27.049999237060547,27.700000762939453,98970.0
2025-03-24,29.459999084472656,29.459999084472656,29.459999084472656,28.5,29.399999618530273,15486.0
2025-03-25,30.93000030517578,30.93000030517578,30.93000030517578,30.93000030517578,30.93000030517578,44249.0
2025-03-26,31.540000915527344,31.540000915527344,31.540000915527344,30.309999465942383,31.540000915527344,119962.0
2025-03-27,32.16999816894531,32.16999816894531,32.16999816894531,32.16999816894531,32.16999816894531,30533.0
2025-03-28,32.810001373291016,32.810001373291016,32.810001373291016,32.810001373291016,32.810001373291016,28661.0
2025-04-01,33.459999084472656,33.459999084472656,33.459999084472656,33.459999084472656,33.459999084472656,16372.0
2025-04-02,34.119998931884766,34.119998931884766,34.119998931884766,34.119998931884766,34.119998931884766,30920.0
2025-04-03,34.79999923706055,34.79999923706055,34.79999923706055,34.79999923706055,34.79999923706055,22441.0
2025-04-04,35.4900016784668,35.4900016784668,35.4900016784668,35.4900016784668,35.4900016784668,37274.0
2025-04-07,36.189998626708984,36.189998626708984,36.189998626708984,36.189998626708984,36.189998626708984,155576.0
2025-04-08,36.90999984741211,36.90999984741211,36.90999984741211,36.90999984741211,36.90999984741211,36527.0
2025-04-09,37.63999938964844,37.63999938964844,37.63999938964844,37.63999938964844,37.63999938964844,46587.0
2025-04-11,38.38999938964844,38.38999938964844,38.38999938964844,38.38999938964844,38.38999938964844,30197.0
2025-04-15,39.150001525878906,39.150001525878906,39.150001525878906,39.150001525878906,39.150001525878906,31442.0
2025-04-16,39.93000030517578,39.93000030517578,39.93000030517578,39.93000030517578,39.93000030517578,23110.0
2025-04-17,40.720001220703125,40.720001220703125,40.720001220703125,40.720001220703125,40.720001220703125,21244.0
2025-04-21,39.900001525878906,39.900001525878906,39.900001525878906,39.900001525878906,39.900001525878906,281187.0
2025-04-22,39.099998474121094,39.099998474121094,39.099998474121094,39.099998474121094,39.099998474121094,272985.0
2025-04-23,38.310001373291016,38.310001373291016,38.310001373291016,38.310001373291016,38.310001373291016,29895.0
2025-04-24,37.540000915527344,37.540000915527344,37.560001373291016,37.540000915527344,37.540000915527344,523065.0
2025-04-25,36.779998779296875,36.779998779296875,36.779998779296875,36.779998779296875,36.779998779296875,62507.0
2025-04-28,36.040000915527344,36.040000915527344,36.779998779296875,36.040000915527344,36.040000915527344,261861.0
2025-04-29,35.310001373291016,35.310001373291016,35.310001373291016,35.310001373291016,35.310001373291016,49220.0
2025-04-30,34.599998474121094,34.599998474121094,34.599998474121094,34.599998474121094,34.599998474121094,23775.0
2025-05-02,33.900001525878906,33.900001525878906,33.900001525878906,33.900001525878906,33.900001525878906,8873.0
2025-05-05,32.20000076293945,32.20000076293945,33.88999938964844,32.20000076293945,32.5,864614.0
2025-05-06,30.59000015258789,30.59000015258789,30.59000015258789,30.59000015258789,30.59000015258789,124674.0
2025-05-07,30.829999923706055,30.829999923706055,32.11000061035156,29.059999465942383,29.059999465942383,364545.0
2025-05-08,32.36000061035156,32.36000061035156,32.369998931884766,31.889999389648438,32.369998931884766,199465.0
2025-05-09,33.95000076293945,33.95000076293945,33.970001220703125,30.739999771118164,31.0,161434.0
2025-05-12,35.63999938964844,35.63999938964844,35.63999938964844,35.380001068115234,35.63999938964844,135622.0
2025-05-13,37.41999816894531,37.41999816894531,37.41999816894531,37.41999816894531,37.41999816894531,87196.0
2025-05-14,37.7400016784668,37.7400016784668,39.290000915527344,35.599998474121094,39.290000915527344,1085952.0
2025-05-15,36.97999954223633,36.97999954223633,36.97999954223633,36.97999954223633,36.97999954223633,76078.0
2025-05-16,37.5,37.5,37.5,37.04999923706055,37.5,194376.0
2025-05-19,37.5,37.5,37.5,37.099998474121094,37.5,59507.0
2025-05-20,38.25,38.25,38.25,37.83000183105469,38.25,50707.0
2025-05-21,39.0099983215332,39.0099983215332,39.0099983215332,39.0099983215332,39.0099983215332,11730.0
2025-05-22,39.790000915527344,39.790000915527344,39.790000915527344,39.790000915527344,39.790000915527344,21454.0
2025-05-23,40.58000183105469,40.58000183105469,40.58000183105469,40.58000183105469,40.58000183105469,10670.0
2025-05-26,41.38999938964844,41.38999938964844,41.38999938964844,41.38999938964844,41.38999938964844,8638.0
2025-05-27,42.209999084472656,42.209999084472656,42.209999084472656,42.209999084472656,42.209999084472656,12604.0
2025-05-28,43.04999923706055,43.04999923706055,43.04999923706055,43.04999923706055,43.04999923706055,17800.0
2025-05-29,43.90999984741211,43.90999984741211,43.90999984741211,43.90999984741211,43.90999984741211,8293.0
2025-05-30,43.029998779296875,43.029998779296875,44.779998779296875,43.029998779296875,43.029998779296875,860078.0
2025-06-02,42.15999984741211,42.15999984741211,42.15999984741211,42.15999984741211,42.15999984741211,95544.0
2025-06-03,41.310001373291016,41.310001373291016,41.310001373291016,41.310001373291016,41.310001373291016,25827.0
2025-06-04,40.47999954223633,40.47999954223633,40.47999954223633,40.47999954223633,40.47999954223633,37980.0
2025-06-05,39.66999816894531,39.66999816894531,39.66999816894531,39.66999816894531,39.66999816894531,47978.0
2025-06-06,38.869998931884766,38.869998931884766,38.869998931884766,38.869998931884766,38.869998931884766,21615.0
2025-06-09,39.63999938964844,39.63999938964844,39.63999938964844,38.09000015258789,39.63999938964844,212381.0
2025-06-10,38.84000015258789,38.84000015258789,38.84000015258789,38.84000015258789,38.84000015258789,59702.0
2025-06-11,38.060001373291016,38.060001373291016,38.060001373291016,38.060001373291016,38.060001373291016,41232.0
2025-06-12,37.290000915527344,37.290000915527344,37.290000915527344,37.290000915527344,37.290000915527344,170845.0
2025-06-13,36.540000915527344,36.540000915527344,36.540000915527344,36.540000915527344,36.540000915527344,38358.0
2025-06-16,35.79999923706055,35.79999923706055,35.79999923706055,35.79999923706055,35.79999923706055,7095.0
2025-06-17,35.08000183105469,35.08000183105469,35.08000183105469,35.08000183105469,35.08000183105469,46973.0
2025-06-18,34.369998931884766,34.369998931884766,35.779998779296875,34.369998931884766,34.369998931884766,675387.0
2025-06-19,33.68000030517578,33.68000030517578,33.68000030517578,33.68000030517578,33.68000030517578,126661.0
2025-06-20,33.0,33.0,33.0,33.0,33.0,440710.0
2025-06-23,31.350000381469727,31.350000381469727,31.350000381469727,31.350000381469727,31.350000381469727,89928.0
2025-06-24,31.709999084472656,31.709999084472656,32.90999984741211,29.780000686645508,29.780000686645508,820012.0
2025-06-25,31.829999923706055,31.829999923706055,32.400001525878906,30.1200008392334,30.600000381469727,277473.0
2025-06-26,31.329999923706055,31.329999923706055,32.900001525878906,31.149999618530273,32.0,46820.0
2025-06-27,32.880001068115234,32.880001068115234,32.88999938964844,30.700000762939453,30.700000762939453,96552.0
2025-06-30,34.52000045776367,34.52000045776367,34.52000045776367,33.400001525878906,33.400001525878906,158910.0
2025-07-01,35.150001525878906,35.150001525878906,36.2400016784668,35.0099983215332,36.2400016784668,265582.0
2025-07-02,33.75,33.75,36.0,33.38999938964844,36.0,285130.0
2025-07-03,32.13999938964844,32.13999938964844,34.25,32.06999969482422,33.400001525878906,140776.0
2025-07-04,32.06999969482422,32.06999969482422,32.5,31.049999237060547,31.850000381469727,63461.0
2025-07-07,32.11000061035156,32.11000061035156,32.689998626708984,31.0,31.399999618530273,32457.0
2025-07-08,32.0,32.0,32.70000076293945,30.649999618530273,31.989999771118164,22583.0
2025-07-09,31.420000076293945,31.420000076293945,32.900001525878906,31.100000381469727,32.0,45210.0
2025-07-10,31.219999313354492,31.219999313354492,32.45000076293945,31.0,31.510000228881836,71143.0
2025-07-11,31.75,31.75,32.20000076293945,31.0,32.20000076293945,35786.0
2025-07-14,31.56999969482422,31.56999969482422,32.2400016784668,31.06999969482422,32.2400016784668,16558.0
2025-07-15,31.93000030517578,31.93000030517578,32.099998474121094,30.959999084472656,31.56999969482422,48930.0
2025-07-16,33.52000045776367,33.52000045776367,33.52000045776367,32.0,32.0,29399.0
2025-07-17,35.189998626708984,35.189998626708984,35.189998626708984,35.0,35.099998474121094,269257.0
2025-07-18,36.939998626708984,36.939998626708984,36.939998626708984,34.099998474121094,34.220001220703125,145115.0
2025-07-21,35.91999816894531,35.91999816894531,38.0,35.09000015258789,35.5099983215332,556017.0
2025-07-22,35.20000076293945,35.20000076293945,35.20000076293945,35.20000076293945,35.20000076293945,53617.0
2025-07-23,34.4900016784668,34.4900016784668,34.4900016784668,34.4900016784668,34.4900016784668,3055.0
2025-07-24,33.79999923706055,33.79999923706055,33.79999923706055,33.79999923706055,33.79999923706055,927.0
2025-07-25,33.119998931884766,33.119998931884766,33.119998931884766,33.119998931884766,33.119998931884766,25133.0
2025-07-28,32.45000076293945,32.45000076293945,32.45000076293945,32.45000076293945,32.45000076293945,17643.0
2025-07-29,33.09000015258789,33.09000015258789,33.09000015258789,32.45000076293945,33.09000015258789,95494.0
2025-07-30,33.04999923706055,33.04999923706055,33.689998626708984,33.0,33.04999923706055,14824.0
2025-07-31,33.45000076293945,33.45000076293945,33.45000076293945,33.0,33.45000076293945,17210.0
2025-08-01,33.599998474121094,33.599998474121094,33.599998474121094,33.599998474121094,33.599998474121094,24953.0
2025-08-04,34.27000045776367,34.27000045776367,34.27000045776367,33.0,34.27000045776367,14652.0
2025-08-05,34.880001068115234,34.880001068115234,34.91999816894531,34.880001068115234,34.880001068115234,13276.0
2025-08-06,34.18000030517578,34.18000030517578,34.880001068115234,34.18000030517578,34.18000030517578,1591.0
2025-08-07,33.4900016784668,33.4900016784668,33.9900016784668,33.4900016784668,33.4900016784668,118.0
2025-08-08,33.0,33.0,33.4900016784668,32.81999969482422,33.0,32051.0
2025-08-11,33.0,33.0,33.0,32.40999984741211,33.0,4094.0
2025-08-12,32.34000015258789,32.34000015258789,33.0,32.34000015258789,32.34000015258789,4823.0
2025-08-13,31.700000762939453,31.700000762939453,32.5,31.700000762939453,31.700000762939453,24098.0
2025-08-14,31.059999465942383,31.059999465942383,31.110000610351562,31.059999465942383,31.059999465942383,3650.0
2025-08-18,30.43000030517578,30.43000030517578,31.209999084472656,30.43000030517578,30.43000030517578,14696.0
2025-08-19,31.030000686645508,31.030000686645508,31.030000686645508,30.610000610351562,31.030000686645508,53106.0
2025-08-20,31.600000381469727,31.600000381469727,31.649999618530273,31.489999771118164,31.600000381469727,16197.0
2025-08-21,32.22999954223633,32.22999954223633,32.22999954223633,32.0,32.22999954223633,24766.0
2025-08-22,32.869998931884766,32.869998931884766,32.869998931884766,32.869998931884766,32.869998931884766,2601.0
2025-08-25,33.0,33.0,33.52000045776367,32.97999954223633,33.0,46052.0
2025-08-26,32.34000015258789,32.34000015258789,32.34000015258789,32.34000015258789,32.34000015258789,47021.0
2025-08-28,31.690000534057617,31.690000534057617,31.75,31.690000534057617,31.690000534057617,13156.0
2025-08-29,31.100000381469727,31.100000381469727,31.600000381469727,31.049999237060547,31.100000381469727,41353.0
2025-09-01,31.15999984741211,31.15999984741211,32.20000076293945,29.6299991607666,31.40999984741211,49878.0
2025-09-02,30.170000076293945,30.170000076293945,31.520000457763672,30.0,30.149999618530273,27743.0
2025-09-03,30.18000030517578,30.18000030517578,30.68000030517578,29.149999618530273,30.0,34576.0
2025-09-04,29.530000686645508,29.530000686645508,30.899999618530273,29.200000762939453,29.950000762939453,30932.0
2025-09-05,29.610000610351562,29.610000610351562,30.0,29.0,29.56999969482422,16345.0
2025-09-08,30.270000457763672,30.270000457763672,31.06999969482422,29.5,29.610000610351562,8810.0
2025-09-09,30.0,30.0,30.8700008392334,29.260000228881836,29.799999237060547,47216.0
2025-09-10,30.5,30.5,31.0,29.399999618530273,29.510000228881836,23235.0
2025-09-11,30.600000381469727,30.600000381469727,31.0,29.5,29.899999618530273,20208.0
2025-09-12,31.030000686645508,31.030000686645508,31.40999984741211,30.209999084472656,30.260000228881836,16174.0
2025-09-15,33.970001220703125,33.970001220703125,37.22999954223633,32.5,32.5,898722.0
2025-09-16,34.869998931884766,34.869998931884766,35.9900016784668,33.599998474121094,34.0,149365.0
2025-09-17,32.849998474121094,32.849998474121094,35.0,32.20000076293945,35.0,112132.0
2025-09-18,34.5,34.5,36.18000030517578,32.2599983215332,32.79999923706055,132921.0
2025-09-19,34.790000915527344,34.790000915527344,35.95000076293945,33.0,34.4900016784668,65706.0
2025-09-22,33.130001068115234,33.130001068115234,35.45000076293945,33.0099983215332,35.45000076293945,36939.0
2025-09-23,32.86000061035156,32.86000061035156,34.599998474121094,32.4900016784668,33.0,572020.0
2025-09-24,32.20000076293945,32.20000076293945,33.900001525878906,32.0,33.5,57140.0
2025-09-25,32.029998779296875,32.029998779296875,33.060001373291016,31.299999237060547,33.0099983215332,36075.0
2025-09-26,31.3799991607666,31.3799991607666,33.029998779296875,31.200000762939453,32.029998779296875,23145.0
2025-09-29,30.93000030517578,30.93000030517578,33.0,30.549999237060547,30.549999237060547,57589.0
2025-09-30,30.959999084472656,30.959999084472656,31.950000762939453,30.549999237060547,30.549999237060547,28094.0
2025-10-01,30.549999237060547,30.549999237060547,31.09000015258789,29.200000762939453,30.100000381469727,38738.0
2025-10-03,33.099998474121094,33.099998474121094,33.5,29.5,29.5,85307.0
2025-10-06,32.52000045776367,32.52000045776367,33.790000915527344,32.5,32.5099983215332,37376.0
2025-10-07,32.2599983215332,32.2599983215332,33.0,32.0099983215332,32.099998474121094,35119.0
2025-10-08,31.56999969482422,31.56999969482422,33.0,31.0,32.97999954223633,46363.0
2025-10-09,31.920000076293945,31.920000076293945,33.43000030517578,31.010000228881836,31.520000457763672,29561.0
2025-10-10,31.489999771118164,31.489999771118164,32.599998474121094,31.200000762939453,31.200000762939453,14397.0
2025-10-13,30.18000030517578,30.18000030517578,31.510000228881836,30.010000228881836,31.010000228881836,48814.0
2025-10-14,30.219999313354492,30.219999313354492,31.0,29.850000381469727,30.8700008392334,71252.0
2025-10-15,29.90999984741211,29.90999984741211,30.90999984741211,29.6299991607666,29.75,40992.0
2025-10-16,30.940000534057617,30.940000534057617,33.02000045776367,30.049999237060547,30.049999237060547,141910.0
2025-10-17,29.709999084472656,29.709999084472656,30.899999618530273,29.399999618530273,30.530000686645508,75588.0
2025-10-20,29.899999618530273,29.899999618530273,30.5,29.110000610351562,29.110000610351562,25277.0
2025-10-21,29.81999969482422,29.81999969482422,31.0,29.0,30.200000762939453,16281.0
2025-10-23,29.889999389648438,29.889999389648438,30.0,29.420000076293945,29.420000076293945,11742.0
2025-10-24,29.940000534057617,29.940000534057617,30.0,29.5,29.6299991607666,24142.0
2025-10-27,29.790000915527344,29.790000915527344,29.989999771118164,29.020000457763672,29.559999465942383,37934.0
2025-10-28,29.799999237060547,29.799999237060547,29.920000076293945,29.270000457763672,29.299999237060547,31096.0
2025-10-29,29.549999237060547,29.549999237060547,30.170000076293945,29.43000030517578,29.799999237060547,18764.0
2025-10-30,29.790000915527344,29.790000915527344,30.469999313354492,29.190000534057617,29.190000534057617,31172.0
2025-10-31,29.139999389648438,29.139999389648438,30.0,29.0,29.329999923706055,19506.0
2025-11-03,29.299999237060547,29.299999237060547,29.899999618530273,29.190000534057617,29.200000762939453,11459.0
2025-11-04,28.260000228881836,28.260000228881836,29.389999389648438,27.350000381469727,29.389999389648438,25781.0
2025-11-06,28.5,28.5,28.899999618530273,28.030000686645508,28.299999237060547,27537.0
2025-11-07,28.15999984741211,28.15999984741211,28.799999237060547,27.049999237060547,27.5,36353.0
2025-11-10,29.219999313354492,29.219999313354492,30.690000534057617,27.170000076293945,27.170000076293945,28887.0
2025-11-11,28.940000534057617,28.940000534057617,29.3700008392334,28.399999618530273,29.360000610351562,12152.0
2025-11-12,28.8700008392334,28.8700008392334,29.09000015258789,28.40999984741211,28.93000030517578,7515.0
2025-11-13,29.020000457763672,29.020000457763672,29.489999771118164,28.0,28.25,111427.0
2025-11-14,29.290000915527344,29.290000915527344,30.0,28.600000381469727,29.489999771118164,22137.0
2025-11-17,29.899999618530273,29.899999618530273,30.190000534057617,29.5,30.0,25781.0
2025-11-18,29.729999542236328,29.729999542236328,30.0,29.190000534057617,29.700000762939453,38362.0
2025-11-19,29.8700008392334,29.8700008392334,32.0,29.25,30.5,123417.0
2025-11-20,29.729999542236328,29.729999542236328,30.5,29.15999984741211,30.5,84265.0
2025-11-21,29.1299991607666,29.1299991607666,30.0,28.299999237060547,29.170000076293945,96140.0
2025-11-24,28.239999771118164,28.239999771118164,29.190000534057617,28.0,28.299999237060547,32501.0
2025-11-25,28.790000915527344,28.790000915527344,29.899999618530273,27.329999923706055,27.329999923706055,168119.0
2025-11-26,28.8799991607666,28.8799991607666,30.850000381469727,28.200000762939453,30.850000381469727,110489.0
2025-11-27,29.799999237060547,29.799999237060547,30.399999618530273,28.309999465942383,29.940000534057617,66309.0
2025-11-28,30.209999084472656,30.209999084472656,30.65999984741211,29.299999237060547,30.100000381469727,15229.0
2025-12-01,29.75,29.75,31.479999542236328,29.190000534057617,29.899999618530273,22785.0
2025-12-02,29.690000534057617,29.690000534057617,30.8700008392334,29.020000457763672,29.020000457763672,41841.0
2025-12-03,30.09000015258789,30.09000015258789,30.600000381469727,29.260000228881836,30.59000015258789,36203.0
2025-12-04,29.989999771118164,29.989999771118164,30.920000076293945,29.950000762939453,30.920000076293945,34798.0
2025-12-05,30.139999389648438,30.139999389648438,30.790000915527344,29.549999237060547,30.790000915527344,27776.0
2025-12-08,29.989999771118164,29.989999771118164,30.329999923706055,29.260000228881836,30.010000228881836,34446.0
2025-12-09,30.280000686645508,30.280000686645508,30.84000015258789,29.799999237060547,29.799999237060547,118916.0
2025-12-10,31.020000457763672,31.020000457763672,31.520000457763672,30.209999084472656,30.899999618530273,36752.0
2025-12-11,31.06999969482422,31.06999969482422,32.0099983215332,30.799999237060547,31.290000915527344,26789.0
2025-12-12,31.170000076293945,31.170000076293945,31.979999542236328,30.950000762939453,31.90999984741211,38074.0
2025-12-15,31.389999389648438,31.389999389648438,31.989999771118164,30.0,30.600000381469727,97094.0
2025-12-16,31.010000228881836,31.010000228881836,31.639999389648438,30.65999984741211,30.65999984741211,23626.0
2025-12-17,30.56999969482422,30.56999969482422,31.469999313354492,30.549999237060547,31.260000228881836,23093.0
2025-12-18,30.200000762939453,30.200000762939453,31.75,30.190000534057617,31.75,26185.0
2025-12-19,30.600000381469727,30.600000381469727,31.059999465942383,30.5,31.059999465942383,15166.0
2025-12-22,31.18000030517578,31.18000030517578,31.479999542236328,30.600000381469727,31.079999923706055,38224.0
2025-12-23,30.860000610351562,30.860000610351562,31.700000762939453,30.649999618530273,31.700000762939453,26809.0
2025-12-24,30.989999771118164,30.989999771118164,31.8799991607666,30.899999618530273,31.0,25441.0
2025-12-26,30.940000534057617,30.940000534057617,32.29999923706055,30.899999618530273,31.610000610351562,66861.0
2025-12-29,31.8700008392334,31.8700008392334,33.88999938964844,31.5,31.559999465942383,80562.0
2025-12-30,31.65999984741211,31.65999984741211,32.459999084472656,30.889999389648438,31.399999618530273,14838.0
2025-12-31,32.720001220703125,32.720001220703125,35.0,31.290000915527344,33.20000076293945,113349.0
2026-01-01,31.700000762939453,31.700000762939453,33.09000015258789,31.5,32.720001220703125,34302.0
2026-01-02,31.809999465942383,31.809999465942383,33.0,31.5,33.0,18253.0
2026-01-05,31.610000610351562,31.610000610351562,33.29999923706055,31.399999618530273,31.700000762939453,21020.0
2026-01-06,31.309999465942383,31.309999465942383,33.25,31.100000381469727,33.25,7569.0
2026-01-07,30.90999984741211,30.90999984741211,31.979999542236328,30.899999618530273,31.299999237060547,17731.0
2026-01-08,30.799999237060547,30.799999237060547,32.0099983215332,30.799999237060547,32.0099983215332,19855.0
2026-01-09,30.90999984741211,30.90999984741211,32.31999969482422,30.899999618530273,32.31999969482422,22220.0
2026-01-12,30.5,30.5,31.5,29.200000762939453,30.90999984741211,15151.0
2026-01-13,30.5,30.5,31.8700008392334,30.5,30.6299991607666,21838.0
2026-01-14,30.540000915527344,30.540000915527344,32.97999954223633,30.469999313354492,32.97999954223633,33342.0
2026-01-16,30.6299991607666,30.6299991607666,31.200000762939453,29.25,31.149999618530273,8907.0
2026-01-19,34.18000030517578,34.18000030517578,35.5,30.18000030517578,30.690000534057617,299482.0
2026-01-20,30.520000457763672,30.520000457763672,34.9900016784668,30.299999237060547,34.290000915527344,99526.0
2026-01-21,30.520000457763672,30.520000457763672,31.799999237060547,29.200000762939453,29.200000762939453,38103.0
2026-01-22,30.860000610351562,30.860000610351562,33.5,30.510000228881836,33.5,12101.0
2026-01-23,30.559999465942383,30.559999465942383,32.0,30.5,30.860000610351562,23844.0
2026-01-27,30.670000076293945,30.670000076293945,31.540000915527344,30.5,30.559999465942383,37275.0
2026-01-28,30.760000228881836,30.760000228881836,31.5,30.510000228881836,30.510000228881836,18822.0
2026-01-29,31.34000015258789,31.34000015258789,32.04999923706055,29.399999618530273,29.399999618530273,84754.0
2026-01-30,30.59000015258789,30.59000015258789,31.899999618530273,30.0,31.899999618530273,107170.0
2026-02-02,30.200000762939453,30.200000762939453,31.579999923706055,29.450000762939453,29.450000762939453,46316.0
2026-02-03,30.5,30.5,31.489999771118164,29.25,29.25,27970.0
2026-02-04,30.700000762939453,30.700000762939453,31.440000534057617,30.25,31.260000228881836,106181.0
2026-02-05,30.5,30.5,31.139999389648438,30.100000381469727,30.149999618530273,46235.0
2026-02-06,30.540000915527344,30.540000915527344,31.0,29.5,30.489999771118164,20538.0
2026-02-09,31.260000228881836,31.260000228881836,31.600000381469727,29.780000686645508,30.540000915527344,19365.0
2026-02-10,31.020000457763672,31.020000457763672,31.510000228881836,30.709999084472656,31.510000228881836,18312.0
2026-02-11,30.6299991607666,30.6299991607666,31.299999237060547,30.5,30.549999237060547,45923.0
2026-02-12,31.010000228881836,31.010000228881836,31.479999542236328,30.40999984741211,31.479999542236328,25587.0
2026-02-13,30.6299991607666,30.6299991607666,31.389999389648438,30.15999984741211,31.389999389648438,27803.0
2026-02-16,31.1200008392334,31.1200008392334,31.5,29.649999618530273,31.5,64012.0
2026-02-17,31.040000915527344,31.040000915527344,31.989999771118164,30.799999237060547,31.510000228881836,31933.0
2026-02-18,31.030000686645508,31.030000686645508,31.350000381469727,30.260000228881836,30.260000228881836,23347.0
2026-02-19,30.579999923706055,30.579999923706055,31.239999771118164,30.299999237060547,30.299999237060547,30880.0
2026-02-20,31.06999969482422,31.06999969482422,31.280000686645508,30.610000610351562,30.700000762939453,318708.0
2026-02-23,31.780000686645508,31.780000686645508,32.47999954223633,30.700000762939453,31.190000534057617,283684.0
2026-02-24,34.5,34.5,34.900001525878906,31.5,32.45000076293945,300634.0
2026-02-25,37.15999984741211,37.15999984741211,40.380001068115234,35.5,36.70000076293945,747491.0
2026-02-26,38.47999954223633,38.47999954223633,39.0,35.20000076293945,37.5,193002.0
2026-02-27,35.540000915527344,35.540000915527344,40.349998474121094,34.04999923706055,38.5,270807.0
2026-03-02,32.95000076293945,32.95000076293945,35.5,32.25,35.5,129760.0
2026-03-04,33.869998931884766,33.869998931884766,35.349998474121094,32.099998474121094,32.099998474121094,57382.0
2026-03-05,34.31999969482422,34.31999969482422,35.31999969482422,32.31999969482422,34.790000915527344,51213.0
2026-03-06,35.880001068115234,35.880001068115234,38.47999954223633,34.97999954223633,35.34000015258789,227477.0
2026-03-09,34.560001373291016,34.560001373291016,35.869998931884766,33.75,35.869998931884766,38380.0
2026-03-10,38.849998474121094,38.849998474121094,41.470001220703125,35.029998779296875,36.79999923706055,418410.0
2026-03-11,39.40999984741211,39.40999984741211,42.0,36.7599983215332,38.849998474121094,428693.0
2026-03-12,36.18000030517578,36.18000030517578,39.79999923706055,35.099998474121094,39.79999923706055,504491.0
2026-03-13,36.7599983215332,36.7599983215332,39.0,35.599998474121094,36.18000030517578,130190.0
2026-03-16,35.22999954223633,35.22999954223633,36.529998779296875,34.20000076293945,35.720001220703125,207771.0
2026-03-17,34.33000183105469,34.33000183105469,36.099998474121094,34.11000061035156,35.2599983215332,85843.0
2026-03-18,34.2599983215332,34.2599983215332,35.0,34.0,34.84000015258789,59459.0
2026-03-19,33.56999969482422,33.56999969482422,34.77000045776367,33.5,33.900001525878906,83212.0
2026-03-20,32.97999954223633,32.97999954223633,34.0,32.90999984741211,33.310001373291016,61193.0
2026-03-23,30.010000228881836,30.010000228881836,33.900001525878906,29.100000381469727,32.900001525878906,347825.0
2026-03-24,31.190000534057617,31.190000534057617,31.540000915527344,29.799999237060547,29.799999237060547,115420.0
2026-03-25,31.020000457763672,31.020000457763672,31.950000762939453,30.799999237060547,30.799999237060547,66919.0
2026-03-27,30.459999084472656,30.459999084472656,31.780000686645508,30.399999618530273,31.020000457763672,76320.0
2026-03-30,29.75,29.75,32.0,28.559999465942383,30.899999618530273,97814.0
2026-04-01,30.229999542236328,30.229999542236328,31.790000915527344,30.0,30.25,99485.0
2026-04-02,30.15999984741211,30.15999984741211,30.510000228881836,29.799999237060547,30.239999771118164,56852.0
2026-04-06,30.329999923706055,30.329999923706055,30.700000762939453,30.0,30.0,47909.0
2026-04-07,30.25,30.25,30.5,30.0,30.329999923706055,28681.0
2026-04-08,30.399999618530273,30.399999618530273,31.489999771118164,30.299999237060547,31.200000762939453,101867.0
2026-04-09,30.719999313354492,30.719999313354492,30.93000030517578,30.059999465942383,30.059999465942383,16407.0
2026-04-10,33.4900016784668,33.4900016784668,33.849998474121094,30.56999969482422,31.40999984741211,204306.0
2026-04-13,34.040000915527344,34.040000915527344,34.83000183105469,32.58000183105469,33.0099983215332,69462.0
2026-04-15,35.040000915527344,35.040000915527344,35.849998474121094,34.060001373291016,35.04999923706055,65903.0
2026-04-16,35.060001373291016,35.060001373291016,35.939998626708984,34.29999923706055,35.939998626708984,35054.0
2026-04-17,36.04999923706055,36.04999923706055,36.45000076293945,34.400001525878906,34.400001525878906,82085.0
2026-04-20,33.38999938964844,33.38999938964844,35.9900016784668,33.20000076293945,34.400001525878906,65288.0
2026-04-21,33.0099983215332,33.0099983215332,34.18000030517578,33.0,33.0,16328.0
2026-04-22,33.470001220703125,33.470001220703125,34.4900016784668,33.0,33.0099983215332,38074.0
2026-04-23,32.790000915527344,32.790000915527344,33.779998779296875,32.599998474121094,33.68000030517578,27930.0
2026-04-24,32.599998474121094,32.599998474121094,33.540000915527344,32.11000061035156,32.11000061035156,11285.0
2026-04-27,31.889999389648438,31.889999389648438,32.959999084472656,31.200000762939453,32.599998474121094,30552.0
2026-04-28,31.530000686645508,31.530000686645508,32.150001525878906,31.5,32.09000015258789,14862.0
2026-04-29,32.119998931884766,32.119998931884766,33.70000076293945,31.520000457763672,31.520000457763672,25471.0
2026-04-30,32.31999969482422,32.31999969482422,32.939998626708984,31.309999465942383,31.309999465942383,21140.0
2026-05-04,32.04999923706055,32.04999923706055,33.16999816894531,31.56999969482422,32.34000015258789,19490.0
2026-05-05,32.400001525878906,32.400001525878906,34.400001525878906,31.899999618530273,32.06999969482422,100401.0
2026-05-06,32.11000061035156,32.11000061035156,32.959999084472656,31.899999618530273,32.400001525878906,23224.0
2026-05-07,32.22999954223633,32.22999954223633,32.68000030517578,31.899999618530273,32.0,17411.0
2026-05-08,32.099998474121094,32.099998474121094,32.400001525878906,31.350000381469727,32.0,63901.0
2026-05-11,31.979999542236328,31.979999542236328,32.5,31.510000228881836,31.510000228881836,9654.0
2026-05-12,30.6299991607666,30.6299991607666,33.0,30.010000228881836,31.989999771118164,38235.0
2026-05-13,30.420000076293945,30.420000076293945,31.200000762939453,30.200000762939453,30.31999969482422,31845.0
2026-05-14,30.920000076293945,30.920000076293945,31.469999313354492,30.079999923706055,30.079999923706055,13865.0
2026-05-15,29.1200008392334,29.1200008392334,31.25,28.100000381469727,30.770000457763672,102209.0
2026-05-18,30.280000686645508,30.280000686645508,31.200000762939453,28.299999237060547,29.899999618530273,60596.0
2026-05-19,29.799999237060547,29.799999237060547,31.290000915527344,29.6200008392334,30.25,19237.0
2026-05-20,29.709999084472656,29.709999084472656,30.200000762939453,29.600000381469727,30.0,11382.0
2026-05-21,29.3700008392334,29.3700008392334,30.399999618530273,28.989999771118164,30.0,28687.0
2026-05-22,28.979999542236328,28.979999542236328,29.729999542236328,28.5,29.0,27838.0
2026-05-25,28.809999465942383,28.809999465942383,29.989999771118164,28.100000381469727,29.290000915527344,25382.0
2026-05-26,28.989999771118164,28.989999771118164,29.350000381469727,28.389999389648438,28.809999465942383,14224.0
2026-05-27,29.690000534057617,29.690000534057617,31.34000015258789,28.989999771118164,28.989999771118164,47255.0
2026-05-28,29.690000534057617,29.690000534057617,29.690000534057617,29.690000534057617,29.690000534057617,0.0
2026-05-29,29.68000030517578,29.68000030517578,30.520000457763672,29.030000686645508,29.829999923706055,23793.0
2026-06-01,29.209999084472656,29.209999084472656,30.389999389648438,29.200000762939453,29.68000030517578,10996.0
2026-06-02,29.489999771118164,29.489999771118164,29.979999542236328,29.399999618530273,29.75,16875.0
2026-06-03,29.049999237060547,29.049999237060547,29.799999237060547,28.969999313354492,29.549999237060547,28810.0
2026-06-04,29.31999969482422,29.31999969482422,29.940000534057617,28.799999237060547,29.0,15772.0
2026-06-05,29.559999465942383,29.559999465942383,30.25,29.010000228881836,29.010000228881836,15430.0
2026-06-08,29.739999771118164,29.739999771118164,30.399999618530273,28.200000762939453,29.65999984741211,18217.0
2026-06-09,29.030000686645508,29.030000686645508,29.989999771118164,28.850000381469727,28.850000381469727,13304.0
2026-06-10,29.540000915527344,29.540000915527344,30.100000381469727,28.5,28.5,19011.0
2026-06-11,28.989999771118164,28.989999771118164,30.229999542236328,28.600000381469727,29.5,19459.0
2026-06-12,29.149999618530273,29.149999618530273,29.799999237060547,28.100000381469727,28.889999389648438,42389.0
2026-06-15,29.809999465942383,29.809999465942383,30.170000076293945,29.25,29.700000762939453,4019.0
2026-06-16,29.6200008392334,29.6200008392334,30.200000762939453,29.209999084472656,30.200000762939453,5748.0
2026-06-17,29.81999969482422,29.81999969482422,29.989999771118164,29.350000381469727,29.5,9675.0
2026-06-18,29.8799991607666,29.8799991607666,30.459999084472656,29.309999465942383,30.0,22895.0
2026-06-19,29.270000457763672,29.270000457763672,30.190000534057617,28.65999984741211,29.8799991607666,42976.0
2026-06-22,29.100000381469727,29.100000381469727,29.75,29.0,29.270000457763672,19371.0
2026-06-23,29.5,29.5,29.889999389648438,29.049999237060547,29.350000381469727,10447.0
2026-06-24,29.200000762939453,29.200000762939453,29.790000915527344,28.5,29.579999923706055,16918.0
2026-06-25,29.059999465942383,29.059999465942383,29.829999923706055,28.399999618530273,29.299999237060547,11411.0
2026-06-26,29.059999465942383,29.059999465942383,29.059999465942383,29.059999465942383,29.059999465942383,0.0
2026-06-29,28.719999313354492,28.719999313354492,29.799999237060547,28.5,28.5,6733.0
2026-06-30,29.149999618530273,29.149999618530273,29.5,28.899999618530273,29.09000015258789,11077.0
2026-07-01,29.020000457763672,29.020000457763672,29.799999237060547,28.959999084472656,29.799999237060547,7662.0
2026-07-02,28.670000076293945,28.670000076293945,30.190000534057617,27.899999618530273,29.350000381469727,29664.0
2026-07-03,28.979999542236328,28.979999542236328,29.260000228881836,28.549999237060547,28.600000381469727,14186.0
2026-07-06,28.899999618530273,28.899999618530273,29.450000762939453,28.549999237060547,28.600000381469727,7716.0
2026-07-07,28.719999313354492,28.719999313354492,29.18000030517578,28.6200008392334,28.760000228881836,4431.0
2026-07-08,28.510000228881836,28.510000228881836,28.989999771118164,28.0,28.5,10697.0
2026-07-09,29.049999237060547,29.049999237060547,29.850000381469727,28.399999618530273,28.719999313354492,29704.0
2026-07-10,29.209999084472656,29.209999084472656,29.8700008392334,28.719999313354492,29.100000381469727,2203.0
2026-07-13,29.1200008392334,29.1200008392334,29.959999084472656,28.700000762939453,29.190000534057617,10860.0
2026-07-14,29.229999542236328,29.229999542236328,29.799999237060547,28.510000228881836,29.1200008392334,3986.0
2026-07-15,28.950000762939453,28.950000762939453,29.899999618530273,28.31999969482422,29.229999542236328,32039.0
2026-07-16,28.610000610351562,28.610000610351562,29.899999618530273,28.5,29.299999237060547,18070.0
2026-07-17,28.84000015258789,28.84000015258789,29.360000610351562,28.399999618530273,28.610000610351562,3780.0
2026-07-20,28.850000381469727,28.850000381469727,28.989999771118164,28.40999984741211,28.84000015258789,5477.0
2026-07-21,29.049999237060547,29.049999237060547,29.25,28.5,28.5,10602.0
2026-07-22,27.93000030517578,27.93000030517578,29.18000030517578,27.1200008392334,29.040000915527344,39441.0
2026-07-23,28.479999542236328,28.479999542236328,29.940000534057617,28.049999237060547,28.059999465942383,73691.0
2026-07-24,28.56999969482422,28.56999969482422,28.969999313354492,27.690000534057617,28.479999542236328,23096.0
2026-07-27,28.520000457763672,28.520000457763672,29.100000381469727,28.100000381469727,28.739999771118164,12069.0
2026-07-28,28.770000457763672,28.770000457763672,29.399999618530273,28.520000457763672,28.530000686645508,8191.0
2026-07-29,28.68000030517578,28.68000030517578,29.479999542236328,28.5,28.510000228881836,8219.0
2026-07-30,28.81999969482422,28.81999969482422,29.31999969482422,28.350000381469727,28.5,7616.0
2026-07-31,28.389999389648438,28.389999389648438,28.709999084472656,28.020000457763672,28.5,24068.0
2026-08-03,30.850000381469727,30.850000381469727,31.989999771118164,28.389999389648438,28.389999389648438,96270.0
2026-08-04,33.369998931884766,33.369998931884766,34.20000076293945,29.299999237060547,30.5,379957.0
2026-08-05,33.45000076293945,33.45000076293945,34.47999954223633,32.70000076293945,33.529998779296875,212385.0
2026-08-06,33.52000045776367,33.52000045776367,34.0,31.510000228881836,33.5,77454.0
2026-08-07,33.08000183105469,33.08000183105469,33.68000030517578,32.5099983215332,33.68000030517578,11397.0
2026-08-10,33.7599983215332,33.7599983215332,35.0,32.25,32.349998474121094,109113.0
2026-08-11,33.36000061035156,33.36000061035156,34.0,32.90999984741211,34.0,51060.0
2026-08-12,33.470001220703125,33.470001220703125,34.5,33.11000061035156,33.36000061035156,19116.0
2026-08-13,31.8799991607666,31.8799991607666,34.099998474121094,31.510000228881836,32.83000183105469,40554.0
2026-08-14,31.6200008392334,31.6200008392334,33.29999923706055,30.899999618530273,31.5,11064.0
2026-08-17,32.779998779296875,32.779998779296875,33.439998626708984,31.0,31.0,23649.0
2026-08-18,33.540000915527344,33.540000915527344,33.900001525878906,31.950000762939453,32.869998931884766,22579.0
2026-08-19,32.400001525878906,32.400001525878906,33.5,31.600000381469727,32.650001525878906,6278.0
2026-08-20,31.65999984741211,31.65999984741211,32.95000076293945,30.700000762939453,32.5,17981.0
2026-08-21,31.790000915527344,31.790000915527344,32.88999938964844,31.219999313354492,32.88999938964844,5205.0
2026-08-24,31.829999923706055,31.829999923706055,33.20000076293945,31.34000015258789,33.20000076293945,9935.0
2026-08-25,31.790000915527344,31.790000915527344,31.889999389648438,30.25,31.190000534057617,7527.0
2026-08-26,31.809999465942383,31.809999465942383,32.189998626708984,31.030000686645508,31.030000686645508,19414.0
2026-08-27,32.77000045776367,32.77000045776367,33.4900016784668,31.75,32.0,32254.0
2026-08-28,31.799999237060547,31.799999237060547,33.0,31.5,32.95000076293945,11248.0
2026-08-31,31.31999969482422,31.31999969482422,32.349998474121094,30.56999969482422,30.56999969482422,10106.0
2026-09-01,31.489999771118164,31.489999771118164,32.15999984741211,30.760000228881836,30.799999237060547,19126.0
2026-09-02,31.200000762939453,31.200000762939453,31.799999237060547,30.81999969482422,31.799999237060547,6736.0
2026-09-03,32.349998474121094,32.349998474121094,32.79999923706055,30.5,31.889999389648438,39050.0
2026-09-04,31.75,31.75,32.959999084472656,31.65999984741211,32.959999084472656,4990.0
2026-09-07,,,32.95000076293945,31.149999618530273,31.43000030517578,35616.0
